time (s),power (mW),amplitude (m) = 1e-06,bundle radius = 0.002,fiber radius = 7.500000000000001e-05,# fibers = 478,beam waist = 0.00033877551020408165,cladding radius = 5e-05,total power (mW) = 90,sampling rate = 2000000.0,trace length = 0.0001,signal frequency = 108000.0
0.0,-0.07456400131096563,1e-06
5e-07,-0.07038525411266261,9.429905358928645e-07
1e-06,-0.061676882420934165,7.784623015670234e-07
1.5e-06,-0.03767234115485385,5.251746299612957e-07
2e-06,-0.016211062345352634,2.1200710992205473e-07
2.4999999999999998e-06,0.008274051817653394,-1.2533323356430415e-07
3e-06,0.03416388513245083,-4.483832160900321e-07
3.5e-06,0.05858323450820446,-7.203090248879069e-07
4e-06,0.06832798538419782,-9.101059706849956e-07
4.5e-06,0.07518415257971922,-9.961336091431724e-07
4.9999999999999996e-06,0.07181890794224577,-9.685831611286312e-07
5.5e-06,0.0648403709270875,-8.305958991958126e-07
6e-06,0.04349316864087771,-5.97904983057519e-07
6.5e-06,0.024526156512904462,-2.97041581577035e-07
7e-06,-0.0020578583964445674,3.769018266993467e-08
7.499999999999999e-06,-0.029660456618780362,3.681245526846774e-07
8e-06,-0.05035573962963813,6.565857557529562e-07
8.5e-06,-0.06627066195941489,8.701837546695255e-07
9e-06,-0.07377053277416845,9.845643345292053e-07
9.499999999999999e-06,-0.07479509590343603,9.86685944207868e-07
9.999999999999999e-06,-0.06629004765415814,8.763066800438638e-07
1.05e-05,-0.05105143933843115,6.660118674342518e-07
1.1e-05,-0.030675888917727212,3.797790955218012e-07
1.15e-05,-0.0024115712694210423,5.0244318179769394e-08
1.2e-05,0.024472831178698806,-2.850192624699756e-07
1.2499999999999999e-05,0.042810516377482566,-5.877852522924729e-07
1.3e-05,0.0647865301570445,-8.235325976284273e-07
1.35e-05,0.07148771613585314,-9.653816388332737e-07
1.4e-05,0.0755401004865206,-9.97158900260614e-07
1.45e-05,0.06936565856366084,-9.152411726209174e-07
1.4999999999999999e-05,0.05894725479936014,-7.289686274214123e-07
1.55e-05,0.03416409606988635,-4.595798606214871e-07
1.6e-05,0.008643810453234035,-1.3779029068463877e-07
1.6499999999999998e-05,-0.015122902742822575,1.9970998051440476e-07
1.7e-05,-0.037323035787447445,5.144395337815062e-07
1.75e-05,-0.06035479419380074,7.70513242775788e-07
1.8e-05,-0.07038525411266261,9.387338576538741e-07
1.85e-05,-0.07456400131096563,9.99921044203816e-07
1.8999999999999998e-05,-0.07071920623841299,9.470983049947447e-07
1.95e-05,-0.06235410867303104,7.862884321366196e-07
1.9999999999999998e-05,-0.04063130054482844,5.358267949789973e-07
2.05e-05,-0.017235804049875014,2.2427076094938186e-07
2.1e-05,0.006935764028447311,-1.128563848734812e-07
2.1499999999999997e-05,0.033808839127841495,-4.3711576665093104e-07
2.2e-05,0.05586761927976491,-7.115356772092852e-07
2.2499999999999998e-05,0.06832701290996934,-9.048270524660188e-07
2.3e-05,0.07518415257971922,-9.949510169813001e-07
2.35e-05,0.07181890794224577,-9.71631732914674e-07
2.4e-05,0.065519635819963,-8.375280400421423e-07
2.45e-05,0.044777354664452984,-6.07930297694606e-07
2.4999999999999998e-05,0.025168500536812743,-3.09016994374948e-07
2.55e-05,-0.0027059179472717076,2.5130095443337016e-08
2.6e-05,-0.027308574951703912,3.564118787132505e-07
2.65e-05,-0.0479508108370581,6.470559615694442e-07
2.7e-05,-0.06626960311123065,8.639234171928353e-07
2.7499999999999998e-05,-0.07314067906530664,9.82287250728688e-07
2.8e-05,-0.07513093622392564,9.88651744737914e-07
2.8499999999999998e-05,-0.06695877513029447,8.822912264349545e-07
2.9e-05,-0.05140201839028968,6.753328081210237e-07
2.95e-05,-0.03169992187972581,3.913736668372046e-07
2.9999999999999997e-05,-0.002811212322515466,6.279051952931557e-08
3.05e-05,0.024424247098237428,-2.7295193551732325e-07
3.1e-05,0.04244027389093841,-5.77572703422269e-07
3.15e-05,0.06349935653628735,-8.16339250717183e-07
3.2e-05,0.07114196948897367,-9.620276715860854e-07
3.25e-05,0.0755401004865206,-9.980267284282717e-07
3.2999999999999996e-05,0.06969767415948969,-9.202318473658721e-07
3.35e-05,0.05899804555607435,-7.375131173581744e-07
3.4e-05,0.03588131649433057,-4.707039321653331e-07
3.45e-05,0.009950360604986441,-1.5022558912075744e-07
3.5e-05,-0.012774427791949261,1.8738131458572093e-07
3.5499999999999996e-05,-0.03625377715442846,5.036232016357578e-07
3.6e-05,-0.060300347464321113,7.62442511011448e-07
3.65e-05,-0.07006398022708193,9.343289424566121e-07
3.7e-05,-0.07490027140221489,9.996841892833e-07
3.75e-05,-0.07073966787377595,9.510565162951544e-07
3.7999999999999995e-05,-0.06301894583377665,7.939903986478369e-07
3.85e-05,-0.04137598292902189,5.463943467342681e-07
3.9e-05,-0.017942362690864577,2.3649899702372676e-07
3.95e-05,0.006232008646614995,-1.0036171485121293e-07
3.9999999999999996e-05,0.03212633233137829,-4.2577929156507105e-07
4.0499999999999995e-05,0.05386110039905323,-7.026499697988455e-07
4.1e-05,0.06832701290996934,-8.994052515663704e-07
4.15e-05,0.07549040563619114,-9.936113105200082e-07
4.2e-05,0.07183656566613283,-9.745268727865773e-07
4.2499999999999996e-05,0.06620491812979745,-8.443279255020174e-07
4.2999999999999995e-05,0.04416826116275474,-6.178596130903375e-07
4.35e-05,0.025883427292102912,-3.2094360980720983e-07
4.4e-05,-4.572844793093722e-05,1.2566039883352439e-08
4.45e-05,-0.02854766615023152,3.4464292317451373e-07
4.4999999999999996e-05,-0.046942800214700986,6.374239897486871e-07
4.5499999999999995e-05,-0.06626960311123065,8.575266561936507e-07
4.6e-05,-0.07248559268122312,9.79855052384247e-07
4.65e-05,-0.07514942775890887,9.904614256966516e-07
4.7e-05,-0.06828254859948002,8.881364488135457e-07
4.7499999999999996e-05,-0.05175164598462145,6.845471059286904e-07
4.8e-05,-0.03141685629905444,4.029064357136646e-07
4.85e-05,-0.0035073313731186495,7.532680552793464e-08
4.9e-05,0.02169930789440544,-2.608415062898953e-07
4.95e-05,0.041110229521269304,-5.672689491267553e-07
4.9999999999999996e-05,0.06177878625563116,-8.090169943749467e-07
5.05e-05,0.0707975329864674,-9.585217890173756e-07
5.1e-05,0.0755401004865206,-9.987369566060174e-07
5.15e-05,0.07071681836512167,-9.250772068344583e-07
5.2e-05,0.05869226427756269,-7.459411454241824e-07
5.2499999999999995e-05,0.035900397362598646,-4.817536741017217e-07
5.3e-05,0.009643680212619854,-1.6263716519488372e-07
5.35e-05,-0.009723171613639447,1.750230589752761e-07
5.4e-05,-0.03622194315769267,4.927273415482918e-07
5.4499999999999997e-05,-0.059310047619506534,7.542513807360994e-07
5.4999999999999995e-05,-0.07038328909180214,9.29776485888249e-07
5.55e-05,-0.07490027140221489,9.992894726405892e-07
5.6e-05,-0.0704179338053661,9.548645447466425e-07
5.65e-05,-0.06205442950579476,8.015669848708801e-07
5.6999999999999996e-05,-0.04008945470019931,5.568756164881927e-07
5.7499999999999995e-05,-0.019350057165084644,2.4868988716486003e-07
5.8e-05,0.006803111590026667,-8.785119655074504e-08
5.85e-05,0.032106242812765196,-4.1437558099327953e-07
5.9e-05,0.05276653168380241,-6.936533058128014e-07
5.9499999999999996e-05,0.06801457447336334,-8.938414241512616e-07
5.9999999999999995e-05,0.07549040563619114,-9.921147013144774e-07
6.05e-05,0.07248559268122223,-9.772681235681944e-07
6.1e-05,0.06591660169287494,-8.509944817946939e-07
6.149999999999999e-05,0.04456298546011506,-6.27691361290709e-07
6.2e-05,0.02752869833719407,-3.328195445229833e-07
6.25e-05,-4.440892098500626e-16,-3.429630018249177e-21
6.3e-05,-0.027528698337194957,3.3281954452298363e-07
6.35e-05,-0.04456298546011572,6.276913612906982e-07
6.4e-05,-0.06591660169287539,8.509944817946903e-07
6.45e-05,-0.07248559268122312,9.77268123568193e-07
6.5e-05,-0.07549040563619225,9.92114701314478e-07
6.549999999999999e-05,-0.06801457447336423,8.93841424151268e-07
6.599999999999999e-05,-0.05276653168380219,6.936533058128116e-07
6.65e-05,-0.03210624281276564,4.143755809932858e-07
6.7e-05,-0.006803111590027555,8.78511965507448e-08
6.75e-05,0.019350057165083756,-2.486898871648534e-07
6.8e-05,0.04008945470019887,-5.568756164881869e-07
6.85e-05,0.06205442950579476,-8.015669848708759e-07
6.9e-05,0.07041793380536521,-9.548645447466427e-07
6.95e-05,0.07490027140221356,-9.992894726405895e-07
7e-05,0.07038328909180147,-9.29776485888254e-07
7.049999999999999e-05,0.059310047619506534,-7.542513807361086e-07
7.099999999999999e-05,0.03622194315769223,-4.927273415482978e-07
7.15e-05,0.009723171613638115,-1.7502305897527587e-07
7.2e-05,-0.009643680212620964,1.6263716519488396e-07
7.25e-05,-0.03590039736259909,4.817536741017157e-07
7.3e-05,-0.05869226427756291,7.459411454241827e-07
7.35e-05,-0.070716818365123,9.250772068344556e-07
7.4e-05,-0.07554010048652171,9.987369566060172e-07
7.45e-05,-0.07079753298646874,9.585217890173775e-07
7.5e-05,-0.06177878625563116,8.090169943749506e-07
7.549999999999999e-05,-0.041110229521269526,5.672689491267608e-07
7.599999999999999e-05,-0.02169930789440655,2.6084150628990185e-07
7.65e-05,0.0035073313731175393,-7.532680552793489e-08
7.7e-05,0.03141685629905444,-4.029064357136648e-07
7.75e-05,0.051751645984621675,-6.845471059286854e-07
7.8e-05,0.06828254859947869,-8.881364488135424e-07
7.85e-05,0.07514942775890776,-9.904614256966505e-07
7.9e-05,0.07248559268122223,-9.798550523842475e-07
7.95e-05,0.0662696031112302,-8.575266561936541e-07
7.999999999999999e-05,0.04694280021470054,-6.374239897486923e-07
8.049999999999999e-05,0.028547666150231077,-3.4464292317452686e-07
8.099999999999999e-05,4.5728447929604954e-05,-1.2566039883362848e-08
8.15e-05,-0.0258834272921038,3.209436098072067e-07
8.2e-05,-0.04416826116275563,6.178596130903322e-07
8.25e-05,-0.06620491812979812,8.443279255020138e-07
8.3e-05,-0.07183656566613372,9.745268727865766e-07
8.35e-05,-0.07549040563619225,9.936113105200086e-07
8.4e-05,-0.06832701290997045,8.994052515663718e-07
8.45e-05,-0.05386110039905301,7.026499697988555e-07
8.499999999999999e-05,-0.032126332331378515,4.2577929156508047e-07
8.549999999999999e-05,-0.006232008646616105,1.0036171485122329e-07
8.599999999999999e-05,0.01794236269086369,-2.3649899702371668e-07
8.65e-05,0.04137598292902167,-5.463943467342683e-07
8.7e-05,0.06301894583377665,-7.939903986478348e-07
8.75e-05,0.07073966787377506,-9.510565162951534e-07
8.8e-05,0.07490027140221356,-9.996841892833e-07
8.85e-05,0.07006398022708149,-9.343289424566146e-07
8.9e-05,0.06030034746432089,-7.624425110114524e-07
8.95e-05,0.03625377715442779,-5.036232016357668e-07
8.999999999999999e-05,0.012774427791947929,-1.8738131458573115e-07
9.049999999999999e-05,-0.009950360604987551,1.5022558912075066e-07
9.099999999999999e-05,-0.03588131649433124,4.7070393216532704e-07
9.15e-05,-0.05899804555607391,7.375131173581745e-07
9.2e-05,-0.0696976741594908,9.202318473658708e-07
9.25e-05,-0.07554010048652171,9.980267284282713e-07
9.3e-05,-0.07114196948897455,9.620276715860873e-07
9.35e-05,-0.06349935653628802,8.163392507171869e-07
9.4e-05,-0.04244027389093863,5.775727034222717e-07
9.449999999999999e-05,-0.024424247098238094,2.7295193551732987e-07
9.499999999999999e-05,0.00281121232251369,-6.279051952930873e-08
9.549999999999999e-05,0.031699921879725146,-3.913736668371983e-07
9.6e-05,0.05140201839028968,-6.753328081210212e-07
9.65e-05,0.0669587751302938,-8.822912264349514e-07
9.7e-05,0.07513093622392475,-9.886517447379133e-07
9.75e-05,0.07314067906530575,-9.822872507286893e-07
9.8e-05,0.0662696031112302,-8.63923417192837e-07
9.85e-05,0.04795081083705788,-6.470559615694467e-07
9.9e-05,0.027308574951703468,-3.564118787132535e-07
9.949999999999999e-05,0.0027059179472703754,-2.5130095443340325e-08
