time (s),power (mW),amplitude (m) = 1e-06,bundle radius = 0.002,fiber radius = 7.500000000000001e-05,# fibers = 472,beam waist = 0.0010153061224489794,cladding radius = 5e-05,total power (mW) = 90,sampling rate = 2000000.0,trace length = 0.0001,signal frequency = 108000.0
0.0,-0.03849191494547943,1e-06
5e-07,-0.036431766999766246,9.429905358928645e-07
1e-06,-0.032057949615031056,7.784623015670234e-07
1.5e-06,-0.018935235379126336,5.251746299612957e-07
2e-06,-0.009035751560689587,2.1200710992205473e-07
2.4999999999999998e-06,0.006107855964998521,-1.2533323356430415e-07
3e-06,0.017287377533759862,-4.483832160900321e-07
3.5e-06,0.028486691879110904,-7.203090248879069e-07
4e-06,0.035312525793240734,-9.101059706849956e-07
4.5e-06,0.03767659672009671,-9.961336091431724e-07
4.9999999999999996e-06,0.03789973311152428,-9.685831611286312e-07
5.5e-06,0.03333917847340473,-8.305958991958126e-07
6e-06,0.02351672829961826,-5.97904983057519e-07
6.5e-06,0.011207633898079994,-2.97041581577035e-07
7e-06,-0.0019431002325798197,3.769018266993467e-08
7.499999999999999e-06,-0.01637562626514022,3.681245526846774e-07
8e-06,-0.026989985461483013,6.565857557529562e-07
8.5e-06,-0.03581605287305134,8.701837546695255e-07
9e-06,-0.03628882349064222,9.845643345292053e-07
9.499999999999999e-06,-0.035929409779638544,9.86685944207868e-07
9.999999999999999e-06,-0.0358448241880267,8.763066800438638e-07
1.05e-05,-0.026568089012908747,6.660118674342518e-07
1.1e-05,-0.015544400866463803,3.797790955218012e-07
1.15e-05,-0.0031183746326162165,5.0244318179769394e-08
1.2e-05,0.011095986793890233,-2.850192624699756e-07
1.2499999999999999e-05,0.022412129064218078,-5.877852522924729e-07
1.3e-05,0.03446837833837746,-8.235325976284273e-07
1.35e-05,0.03750762430753696,-9.653816388332737e-07
1.4e-05,0.03767659672009671,-9.97158900260614e-07
1.45e-05,0.035343771328006035,-9.152411726209174e-07
1.4999999999999999e-05,0.028381462512231614,-7.289686274214123e-07
1.55e-05,0.01646975558732322,-4.595798606214871e-07
1.6e-05,0.009370925583260359,-1.3779029068463877e-07
1.6499999999999998e-05,-0.009463804589953106,1.9970998051440476e-07
1.7e-05,-0.019678707712384114,5.144395337815062e-07
1.75e-05,-0.03123719751346865,7.70513242775788e-07
1.8e-05,-0.03643384715524878,9.387338576538741e-07
1.85e-05,-0.03849191494547943,9.99921044203816e-07
1.8999999999999998e-05,-0.036431766999766246,9.470983049947447e-07
1.95e-05,-0.032023375011053457,7.862884321366196e-07
1.9999999999999998e-05,-0.020523175874886945,5.358267949789973e-07
2.05e-05,-0.01014651189993554,2.2427076094938186e-07
2.1e-05,0.005257082615018227,-1.128563848734812e-07
2.1499999999999997e-05,0.01774184032480841,-4.3711576665093104e-07
2.2e-05,0.028050929743363984,-7.115356772092852e-07
2.2499999999999998e-05,0.03566950697858262,-9.048270524660188e-07
2.3e-05,0.03733564487419905,-9.949510169813001e-07
2.35e-05,0.037859710206748165,-9.71631732914674e-07
2.4e-05,0.03334629793307764,-8.375280400421423e-07
2.45e-05,0.02460660622048927,-6.07930297694606e-07
2.4999999999999998e-05,0.013181082486449114,-3.09016994374948e-07
2.55e-05,-0.001186692968424996,2.5130095443337016e-08
2.6e-05,-0.016719947690133186,3.564118787132505e-07
2.65e-05,-0.026211322819257976,6.470559615694442e-07
2.7e-05,-0.0355024975251208,8.639234171928353e-07
2.7499999999999998e-05,-0.03664468581818925,9.82287250728688e-07
2.8e-05,-0.03559419562157151,9.88651744737914e-07
2.8499999999999998e-05,-0.03628890780048932,8.822912264349545e-07
2.9e-05,-0.027015784057839998,6.753328081210237e-07
2.95e-05,-0.016598212415357416,3.913736668372046e-07
2.9999999999999997e-05,-0.0035014739938636907,6.279051952931557e-08
3.05e-05,0.01058147723756031,-2.7295193551732325e-07
3.1e-05,0.022479585434755478,-5.77572703422269e-07
3.15e-05,0.03240393631747329,-8.16339250717183e-07
3.2e-05,0.03750762430753696,-9.620276715860854e-07
3.25e-05,0.03767659672009671,-9.980267284282717e-07
3.2999999999999996e-05,0.036093166565172474,-9.202318473658721e-07
3.35e-05,0.02867536516415159,-7.375131173581744e-07
3.4e-05,0.017121663068761617,-4.707039321653331e-07
3.45e-05,0.008960076513542692,-1.5022558912075744e-07
3.5e-05,-0.008807377768115465,1.8738131458572093e-07
3.5499999999999996e-05,-0.018858626082493224,5.036232016357578e-07
3.6e-05,-0.030502309167995012,7.62442511011448e-07
3.65e-05,-0.03648506083974645,9.343289424566121e-07
3.7e-05,-0.03849191494547943,9.996841892833e-07
3.75e-05,-0.03638317669690316,9.510565162951544e-07
3.7999999999999995e-05,-0.03348996200856025,7.939903986478369e-07
3.85e-05,-0.01925240125355021,5.463943467342681e-07
3.9e-05,-0.010063851569252602,2.3649899702372676e-07
3.95e-05,0.005273955652029816,-1.0036171485121293e-07
3.9999999999999996e-05,0.01647782176099044,-4.2577929156507105e-07
4.0499999999999995e-05,0.0275016305627358,-7.026499697988455e-07
4.1e-05,0.036489602617852945,-8.994052515663704e-07
4.15e-05,0.036684054845609104,-9.936113105200082e-07
4.2e-05,0.03818235229178768,-9.745268727865773e-07
4.2499999999999996e-05,0.03454087365411773,-8.443279255020174e-07
4.2999999999999995e-05,0.02500409486609456,-6.178596130903375e-07
4.35e-05,0.014275071552651841,-3.2094360980720983e-07
4.4e-05,-0.00015769626850437035,1.2566039883352439e-08
4.45e-05,-0.014909425229486573,3.4464292317451373e-07
4.4999999999999996e-05,-0.02526030952657843,6.374239897486871e-07
4.5499999999999995e-05,-0.03478092851260506,8.575266561936507e-07
4.6e-05,-0.03702696506588721,9.79855052384247e-07
4.65e-05,-0.03592721812135746,9.904614256966516e-07
4.7e-05,-0.0362182010134493,8.881364488135457e-07
4.7499999999999996e-05,-0.027866413621528974,6.845471059286904e-07
4.8e-05,-0.016969476643989623,4.029064357136646e-07
4.85e-05,-0.004856225966058503,7.532680552793464e-08
4.9e-05,0.01108385116438626,-2.608415062898953e-07
4.95e-05,0.021226145554126052,-5.672689491267553e-07
4.9999999999999996e-05,0.03408572628917517,-8.090169943749467e-07
5.05e-05,0.036803692090181084,-9.585217890173756e-07
5.1e-05,0.03849191494547943,-9.987369566060174e-07
5.15e-05,0.036922045576314844,-9.250772068344583e-07
5.2e-05,0.029922131391940887,-7.459411454241824e-07
5.2499999999999995e-05,0.01789710000250322,-4.817536741017217e-07
5.3e-05,0.008501124643736091,-1.6263716519488372e-07
5.35e-05,-0.009267993520949869,1.750230589752761e-07
5.4e-05,-0.018618942367991664,4.927273415482918e-07
5.4499999999999997e-05,-0.031387009984690906,7.542513807360994e-07
5.4999999999999995e-05,-0.036508812937755764,9.29776485888249e-07
5.55e-05,-0.03849191494547943,9.992894726405892e-07
5.6e-05,-0.03603774885946498,9.548645447466425e-07
5.65e-05,-0.03455962578509553,8.015669848708801e-07
5.6999999999999996e-05,-0.020304175315557504,5.568756164881927e-07
5.7499999999999995e-05,-0.010370841091075889,2.4868988716486003e-07
5.8e-05,0.005485480519705543,-8.785119655074504e-08
5.85e-05,0.016914063752979214,-4.1437558099327953e-07
5.9e-05,0.027041939722130426,-6.936533058128014e-07
5.9499999999999996e-05,0.03659928468380258,-8.938414241512616e-07
5.9999999999999995e-05,0.036684054845609104,-9.921147013144774e-07
6.05e-05,0.0377884400536459,-9.772681235681944e-07
6.1e-05,0.03460429773270102,-8.509944817946939e-07
6.149999999999999e-05,0.02556362067020146,-6.27691361290709e-07
6.2e-05,0.014908639040156046,-3.328195445229833e-07
6.25e-05,0.0,-3.429630018249177e-21
6.3e-05,-0.014908639040156046,3.3281954452298363e-07
6.35e-05,-0.025563620670201903,6.276913612906982e-07
6.4e-05,-0.034604297732701905,8.509944817946903e-07
6.45e-05,-0.0377884400536459,9.77268123568193e-07
6.5e-05,-0.036684054845609104,9.92114701314478e-07
6.549999999999999e-05,-0.036599284683803024,8.93841424151268e-07
6.599999999999999e-05,-0.027041939722130426,6.936533058128116e-07
6.65e-05,-0.016914063752979214,4.143755809932858e-07
6.7e-05,-0.005485480519705543,8.78511965507448e-08
6.75e-05,0.010370841091076777,-2.486898871648534e-07
6.8e-05,0.020304175315557504,-5.568756164881869e-07
6.85e-05,0.03455962578509508,-8.015669848708759e-07
6.9e-05,0.03603774885946409,-9.548645447466427e-07
6.95e-05,0.03849191494547943,-9.992894726405895e-07
7e-05,0.03650881293775532,-9.29776485888254e-07
7.049999999999999e-05,0.03138700998469224,-7.542513807361086e-07
7.099999999999999e-05,0.01861894236799122,-4.927273415482978e-07
7.15e-05,0.009267993520950313,-1.7502305897527587e-07
7.2e-05,-0.008501124643735203,1.6263716519488396e-07
7.25e-05,-0.017897100002503663,4.817536741017157e-07
7.3e-05,-0.029922131391940887,7.459411454241827e-07
7.35e-05,-0.036922045576314844,9.250772068344556e-07
7.4e-05,-0.03849191494547943,9.987369566060172e-07
7.45e-05,-0.03680369209018197,9.585217890173775e-07
7.5e-05,-0.03408572628917517,8.090169943749506e-07
7.549999999999999e-05,-0.02122614555412694,5.672689491267608e-07
7.599999999999999e-05,-0.011083851164385816,2.6084150628990185e-07
7.65e-05,0.004856225966057615,-7.532680552793489e-08
7.7e-05,0.016969476643990067,-4.029064357136648e-07
7.75e-05,0.02786641362152853,-6.845471059286854e-07
7.8e-05,0.036218201013448414,-8.881364488135424e-07
7.85e-05,0.03592721812135791,-9.904614256966505e-07
7.9e-05,0.03702696506588721,-9.798550523842475e-07
7.95e-05,0.034780928512604614,-8.575266561936541e-07
7.999999999999999e-05,0.02526030952657754,-6.374239897486923e-07
8.049999999999999e-05,0.014909425229486128,-3.4464292317452686e-07
8.099999999999999e-05,0.00015769626850348217,-1.2566039883362848e-08
8.15e-05,-0.014275071552651841,3.209436098072067e-07
8.2e-05,-0.025004094866095006,6.178596130903322e-07
8.25e-05,-0.03454087365411862,8.443279255020138e-07
8.3e-05,-0.038182352291788124,9.745268727865766e-07
8.35e-05,-0.036684054845609104,9.936113105200086e-07
8.4e-05,-0.03648960261785339,8.994052515663718e-07
8.45e-05,-0.0275016305627358,7.026499697988555e-07
8.499999999999999e-05,-0.016477821760989997,4.2577929156508047e-07
8.549999999999999e-05,-0.005273955652029372,1.0036171485122329e-07
8.599999999999999e-05,0.010063851569253046,-2.3649899702371668e-07
8.65e-05,0.01925240125355021,-5.463943467342683e-07
8.7e-05,0.03348996200856025,-7.939903986478348e-07
8.75e-05,0.036383176696902275,-9.510565162951534e-07
8.8e-05,0.03849191494547943,-9.996841892833e-07
8.85e-05,0.036485060839745564,-9.343289424566146e-07
8.9e-05,0.030502309167995456,-7.624425110114524e-07
8.95e-05,0.01885862608249189,-5.036232016357668e-07
8.999999999999999e-05,0.00880737776811591,-1.8738131458573115e-07
9.049999999999999e-05,-0.00896007651354358,1.5022558912075066e-07
9.099999999999999e-05,-0.01712166306876206,4.7070393216532704e-07
9.15e-05,-0.028675365164151145,7.375131173581745e-07
9.2e-05,-0.036093166565172474,9.202318473658708e-07
9.25e-05,-0.037676596720097155,9.980267284282713e-07
9.3e-05,-0.037507624307537846,9.620276715860873e-07
9.35e-05,-0.03240393631747329,8.163392507171869e-07
9.4e-05,-0.022479585434755922,5.775727034222717e-07
9.449999999999999e-05,-0.01058147723756031,2.7295193551732987e-07
9.499999999999999e-05,0.0035014739938632466,-6.279051952930873e-08
9.549999999999999e-05,0.016598212415357416,-3.913736668371983e-07
9.6e-05,0.027015784057839998,-6.753328081210212e-07
9.65e-05,0.03628890780048888,-8.822912264349514e-07
9.7e-05,0.0355941956215724,-9.886517447379133e-07
9.75e-05,0.03664468581818969,-9.822872507286893e-07
9.8e-05,0.03550249752512036,-8.63923417192837e-07
9.85e-05,0.026211322819257088,-6.470559615694467e-07
9.9e-05,0.016719947690131853,-3.564118787132535e-07
9.949999999999999e-05,0.001186692968424552,-2.5130095443340325e-08
