time (s),power (mW),amplitude (m) = 1e-06,bundle radius = 0.0033,fiber radius = 0.0001875,# fibers = 220,beam waist = 0.0010500000000000002,cladding radius = 6.25e-05,total power (mW) = 90,sampling rate = 2000000.0,trace length = 0.0001,signal frequency = 108000.0
0.0,-0.09161203438872789,1e-06
5e-07,-0.08216563097658991,9.429905358928645e-07
1e-06,-0.06335151872476885,7.784623015670234e-07
1.5e-06,-0.04129344105838939,5.251746299612957e-07
2e-06,-0.01832557523232836,2.1200710992205473e-07
2.4999999999999998e-06,0.010975511107748304,-1.2533323356430415e-07
3e-06,0.03264797586081869,-4.483832160900321e-07
3.5e-06,0.06035225559392288,-7.203090248879069e-07
4e-06,0.07750027199281462,-9.101059706849956e-07
4.5e-06,0.09161203438872079,-9.961336091431724e-07
4.9999999999999996e-06,0.0835452212981771,-9.685831611286312e-07
5.5e-06,0.07245149236974768,-8.305958991958126e-07
6e-06,0.04677748951222327,-5.97904983057519e-07
6.5e-06,0.018797993319402906,-2.97041581577035e-07
7e-06,-0.0036926237835857023,3.769018266993467e-08
7.499999999999999e-06,-0.021444849451093262,3.681245526846774e-07
8e-06,-0.0523229771523539,6.565857557529562e-07
8.5e-06,-0.07263830408525607,8.701837546695255e-07
9e-06,-0.08727516986518324,9.845643345292053e-07
9.499999999999999e-06,-0.0892996297442572,9.86685944207868e-07
9.999999999999999e-06,-0.07343919846765345,8.763066800438638e-07
1.05e-05,-0.0533737484638479,6.660118674342518e-07
1.1e-05,-0.022258817783420426,3.797790955218012e-07
1.15e-05,-0.00672261383013506,5.0244318179769394e-08
1.2e-05,0.017090840183300315,-2.850192624699756e-07
1.2499999999999999e-05,0.04396137748520701,-5.877852522924729e-07
1.3e-05,0.07125283199277632,-8.235325976284273e-07
1.35e-05,0.08206464767834021,-9.653816388332737e-07
1.4e-05,0.09161203438872079,-9.97158900260614e-07
1.45e-05,0.076727395701365,-9.152411726209174e-07
1.4999999999999999e-05,0.060557147680324164,-7.289686274214123e-07
1.55e-05,0.03303557684419545,-4.595798606214871e-07
1.6e-05,0.012207050373525874,-1.3779029068463877e-07
1.6499999999999998e-05,-0.015780729072545796,1.9970998051440476e-07
1.7e-05,-0.04042162120144255,5.144395337815062e-07
1.75e-05,-0.062056913173421435,7.70513242775788e-07
1.8e-05,-0.08134501407217698,9.387338576538741e-07
1.85e-05,-0.09161203438872789,9.99921044203816e-07
1.8999999999999998e-05,-0.0809793041545177,9.470983049947447e-07
1.95e-05,-0.06619527113637602,7.862884321366196e-07
1.9999999999999998e-05,-0.04134562755800886,5.358267949789973e-07
2.05e-05,-0.018935234616233032,2.2427076094938186e-07
2.1e-05,0.011216260373977605,-1.128563848734812e-07
2.1499999999999997e-05,0.03274211737606336,-4.3711576665093104e-07
2.2e-05,0.05880182380705179,-7.115356772092852e-07
2.2499999999999998e-05,0.0764814316270801,-9.048270524660188e-07
2.3e-05,0.09068852505100367,-9.949510169813001e-07
2.35e-05,0.08595740111089256,-9.71631732914674e-07
2.4e-05,0.07173306126154344,-8.375280400421423e-07
2.45e-05,0.04773868576376472,-6.07930297694606e-07
2.4999999999999998e-05,0.018747840849126618,-3.09016994374948e-07
2.55e-05,-0.0026933153918022867,2.5130095443337016e-08
2.6e-05,-0.021261350424516934,3.564118787132505e-07
2.65e-05,-0.051866500207445654,6.470559615694442e-07
2.7e-05,-0.07275622552157657,8.639234171928353e-07
2.7499999999999998e-05,-0.08765131368728518,9.82287250728688e-07
2.8e-05,-0.08968847021995074,9.88651744737914e-07
2.8499999999999998e-05,-0.0738672908325384,8.822912264349545e-07
2.9e-05,-0.05357830141857889,6.753328081210237e-07
2.95e-05,-0.021742484492953906,3.913736668372046e-07
2.9999999999999997e-05,-0.006419834549170389,6.279051952931557e-08
3.05e-05,0.01676160920664671,-2.7295193551732325e-07
3.1e-05,0.043004874137064775,-5.77572703422269e-07
3.15e-05,0.07053444870857106,-8.16339250717183e-07
3.2e-05,0.08170050685337671,-9.620276715860854e-07
3.25e-05,0.09161203438872079,-9.980267284282717e-07
3.2999999999999996e-05,0.07759131704722577,-9.202318473658721e-07
3.35e-05,0.06160828208598801,-7.375131173581744e-07
3.4e-05,0.0348444473988323,-4.707039321653331e-07
3.45e-05,0.013864744761594494,-1.5022558912075744e-07
3.5e-05,-0.015546498583489665,1.8738131458572093e-07
3.5499999999999996e-05,-0.038872195717427616,5.036232016357578e-07
3.6e-05,-0.06317126515027027,7.62442511011448e-07
3.65e-05,-0.08059054589200088,9.343289424566121e-07
3.7e-05,-0.09161203438872789,9.996841892833e-07
3.75e-05,-0.08125695338504713,9.510565162951544e-07
3.7999999999999995e-05,-0.06693578320127003,7.939903986478369e-07
3.85e-05,-0.04160041437417661,5.463943467342681e-07
3.9e-05,-0.018464118089180914,2.3649899702372676e-07
3.95e-05,0.009679851027147635,-1.0036171485121293e-07
3.9999999999999996e-05,0.029576477884003083,-4.2577929156507105e-07
4.0499999999999995e-05,0.05808523644896724,-7.026499697988455e-07
4.1e-05,0.07615463079487839,-8.994052515663704e-07
4.15e-05,0.0897612588858614,-9.936113105200082e-07
4.2e-05,0.08637212371641212,-9.745268727865773e-07
4.2499999999999996e-05,0.07236870069899481,-8.443279255020174e-07
4.2999999999999995e-05,0.05093084346987453,-6.178596130903375e-07
4.35e-05,0.020849762948696338,-3.2094360980720983e-07
4.4e-05,-0.0008450119302167991,1.2566039883352439e-08
4.45e-05,-0.021511281869287302,3.4464292317451373e-07
4.4999999999999996e-05,-0.051264703948518786,6.374239897486871e-07
4.5499999999999995e-05,-0.07183069845193657,8.575266561936507e-07
4.6e-05,-0.08803532389755375,9.79855052384247e-07
4.65e-05,-0.08968847021995074,9.904614256966516e-07
4.7e-05,-0.07465377354724723,8.881364488135457e-07
4.7499999999999996e-05,-0.055127416750551106,6.845471059286904e-07
4.8e-05,-0.024375096417816877,4.029064357136646e-07
4.85e-05,-0.008287886961849011,7.532680552793464e-08
4.9e-05,0.018781030515757635,-2.608415062898953e-07
4.95e-05,0.04234675694173262,-5.672689491267553e-07
4.9999999999999996e-05,0.07005816680340615,-8.090169943749467e-07
5.05e-05,0.08088460801406328,-9.585217890173756e-07
5.1e-05,0.09161203438872079,-9.987369566060174e-07
5.15e-05,0.07878124709280598,-9.250772068344583e-07
5.2e-05,0.06245821291879139,-7.459411454241824e-07
5.2499999999999995e-05,0.03680920205211535,-4.817536741017217e-07
5.3e-05,0.01322571711098064,-1.6263716519488372e-07
5.35e-05,-0.013792129992747704,1.750230589752761e-07
5.4e-05,-0.0374485765921726,4.927273415482918e-07
5.4499999999999997e-05,-0.06199147424123197,7.542513807360994e-07
5.4999999999999995e-05,-0.07992969709563269,9.29776485888249e-07
5.55e-05,-0.09161203438872789,9.992894726405892e-07
5.6e-05,-0.0810242240277681,9.548645447466425e-07
5.65e-05,-0.06905318725539189,8.015669848708801e-07
5.6999999999999996e-05,-0.04185615332496084,5.568756164881927e-07
5.7499999999999995e-05,-0.017572300538510888,2.4868988716486003e-07
5.8e-05,0.008587550708128333,-8.785119655074504e-08
5.85e-05,0.025591966065160676,-4.1437558099327953e-07
5.9e-05,0.055843894816369755,-6.936533058128014e-07
5.9499999999999996e-05,0.07557126437337303,-8.938414241512616e-07
5.9999999999999995e-05,0.08925254129778892,-9.921147013144774e-07
6.05e-05,0.08727096573531412,-9.772681235681944e-07
6.1e-05,0.07267064354918773,-8.509944817946939e-07
6.149999999999999e-05,0.0515358306561815,-6.27691361290709e-07
6.2e-05,0.02026388088854958,-3.328195445229833e-07
6.25e-05,-3.552713678800501e-15,-3.429630018249177e-21
6.3e-05,-0.020263880888560237,3.3281954452298363e-07
6.35e-05,-0.05153583065619216,6.276913612906982e-07
6.4e-05,-0.07267064354920194,8.509944817946903e-07
6.45e-05,-0.08727096573532123,9.77268123568193e-07
6.5e-05,-0.08925254129780669,9.92114701314478e-07
6.549999999999999e-05,-0.07557126437338724,8.93841424151268e-07
6.599999999999999e-05,-0.05584389481638041,6.936533058128116e-07
6.65e-05,-0.02559196606516778,4.143755809932858e-07
6.7e-05,-0.008587550708131886,8.78511965507448e-08
6.75e-05,0.017572300538507335,-2.486898871648534e-07
6.8e-05,0.04185615332495374,-5.568756164881869e-07
6.85e-05,0.06905318725537768,-8.015669848708759e-07
6.9e-05,0.08102422402776455,-9.548645447466427e-07
6.95e-05,0.09161203438872079,-9.992894726405895e-07
7e-05,0.07992969709562203,-9.29776485888254e-07
7.049999999999999e-05,0.06199147424122131,-7.542513807361086e-07
7.099999999999999e-05,0.03744857659215839,-4.927273415482978e-07
7.15e-05,0.013792129992740598,-1.7502305897527587e-07
7.2e-05,-0.013225717110984192,1.6263716519488396e-07
7.25e-05,-0.036809202052129564,4.817536741017157e-07
7.3e-05,-0.06245821291880205,7.459411454241827e-07
7.35e-05,-0.07878124709280954,9.250772068344556e-07
7.4e-05,-0.09161203438872789,9.987369566060172e-07
7.45e-05,-0.08088460801406683,9.585217890173775e-07
7.5e-05,-0.0700581668034097,8.090169943749506e-07
7.549999999999999e-05,-0.04234675694173973,5.672689491267608e-07
7.599999999999999e-05,-0.01878103051576474,2.6084150628990185e-07
7.65e-05,0.008287886961841906,-7.532680552793489e-08
7.7e-05,0.02437509641780622,-4.029064357136648e-07
7.75e-05,0.05512741675054045,-6.845471059286854e-07
7.8e-05,0.07465377354723657,-8.881364488135424e-07
7.85e-05,0.08968847021993653,-9.904614256966505e-07
7.9e-05,0.0880353238975431,-9.798550523842475e-07
7.95e-05,0.07183069845192591,-8.575266561936541e-07
7.999999999999999e-05,0.05126470394851168,-6.374239897486923e-07
8.049999999999999e-05,0.02151128186928375,-3.4464292317452686e-07
8.099999999999999e-05,0.000845011930206141,-1.2566039883362848e-08
8.15e-05,-0.020849762948696338,3.209436098072067e-07
8.2e-05,-0.050930843469878084,6.178596130903322e-07
8.25e-05,-0.07236870069900547,8.443279255020138e-07
8.3e-05,-0.08637212371641922,9.745268727865766e-07
8.35e-05,-0.0897612588858756,9.936113105200086e-07
8.4e-05,-0.07615463079488904,8.994052515663718e-07
8.45e-05,-0.05808523644897079,7.026499697988555e-07
8.499999999999999e-05,-0.029576477884020846,4.2577929156508047e-07
8.549999999999999e-05,-0.009679851027147635,1.0036171485122329e-07
8.599999999999999e-05,0.01846411808917736,-2.3649899702371668e-07
8.65e-05,0.0416004143741695,-5.463943467342683e-07
8.7e-05,0.06693578320126292,-7.939903986478348e-07
8.75e-05,0.08125695338504357,-9.510565162951534e-07
8.8e-05,0.09161203438872079,-9.996841892833e-07
8.85e-05,0.08059054589199377,-9.343289424566146e-07
8.9e-05,0.06317126515025961,-7.624425110114524e-07
8.95e-05,0.03887219571741696,-5.036232016357668e-07
8.999999999999999e-05,0.015546498583479007,-1.8738131458573115e-07
9.049999999999999e-05,-0.0138647447616016,1.5022558912075066e-07
9.099999999999999e-05,-0.03484444739883941,4.7070393216532704e-07
9.15e-05,-0.06160828208600222,7.375131173581745e-07
9.2e-05,-0.07759131704723643,9.202318473658708e-07
9.25e-05,-0.09161203438872789,9.980267284282713e-07
9.3e-05,-0.08170050685338381,9.620276715860873e-07
9.35e-05,-0.07053444870858527,8.163392507171869e-07
9.4e-05,-0.04300487413707543,5.775727034222717e-07
9.449999999999999e-05,-0.01676160920665737,2.7295193551732987e-07
9.499999999999999e-05,0.006419834549159731,-6.279051952930873e-08
9.549999999999999e-05,0.021742484492950354,-3.913736668371983e-07
9.6e-05,0.053578301418575336,-6.753328081210212e-07
9.65e-05,0.0738672908325313,-8.822912264349514e-07
9.7e-05,0.08968847021993653,-9.886517447379133e-07
9.75e-05,0.08765131368727452,-9.822872507286893e-07
9.8e-05,0.07275622552156946,-8.63923417192837e-07
9.85e-05,0.05186650020743855,-6.470559615694467e-07
9.9e-05,0.02126135042451338,-3.564118787132535e-07
9.949999999999999e-05,0.0026933153917916286,-2.5130095443340325e-08
