time (s),power (mW),amplitude (m) = 1e-06,bundle radius = 0.0033,fiber radius = 0.0001875,# fibers = 220,beam waist = 0.0019102040816326529,cladding radius = 6.25e-05,total power (mW) = 90,sampling rate = 2000000.0,trace length = 0.0001,signal frequency = 108000.0
0.0,-0.0584152714720485,1e-06
5e-07,-0.055958469288095,9.429905358928645e-07
1e-06,-0.048681212703240107,7.784623015670234e-07
1.5e-06,-0.034458594375584184,5.251746299612957e-07
2e-06,-0.013318395859627685,2.1200710992205473e-07
2.4999999999999998e-06,0.011162266923825825,-1.2533323356430415e-07
3e-06,0.030517626794742014,-4.483832160900321e-07
3.5e-06,0.04341435052261211,-7.203090248879069e-07
4e-06,0.054637311107660125,-9.101059706849956e-07
4.5e-06,0.05998732288414743,-9.961336091431724e-07
4.9999999999999996e-06,0.05653253013335302,-9.685831611286312e-07
5.5e-06,0.05017641526715977,-8.305958991958126e-07
6e-06,0.03616562103698051,-5.97904983057519e-07
6.5e-06,0.019724083669164116,-2.97041581577035e-07
7e-06,-0.0042166741129570084,3.769018266993467e-08
7.499999999999999e-06,-0.02370919300053309,3.681245526846774e-07
8e-06,-0.03663251309925286,6.565857557529562e-07
8.5e-06,-0.05141454439787374,8.701837546695255e-07
9e-06,-0.05891685136725755,9.845643345292053e-07
9.499999999999999e-06,-0.059729890452814516,9.86685944207868e-07
9.999999999999999e-06,-0.051808439945597584,8.763066800438638e-07
1.05e-05,-0.03815105803666796,6.660118674342518e-07
1.1e-05,-0.023754236216181113,3.797790955218012e-07
1.15e-05,-0.003313424867734227,5.0244318179769394e-08
1.2e-05,0.018654509878452075,-2.850192624699756e-07
1.2499999999999999e-05,0.03755551468828955,-5.877852522924729e-07
1.3e-05,0.04939489308813805,-8.235325976284273e-07
1.35e-05,0.05529971373419684,-9.653816388332737e-07
1.4e-05,0.05998732288414743,-9.97158900260614e-07
1.45e-05,0.05491062056068152,-9.152411726209174e-07
1.4999999999999999e-05,0.04479699154191685,-7.289686274214123e-07
1.55e-05,0.029695203633206546,-4.595798606214871e-07
1.6e-05,0.010753747281203374,-1.3779029068463877e-07
1.6499999999999998e-05,-0.013647987745363466,1.9970998051440476e-07
1.7e-05,-0.03457343173027638,5.144395337815062e-07
1.75e-05,-0.04927383955662101,7.70513242775788e-07
1.8e-05,-0.055575992372766336,9.387338576538741e-07
1.85e-05,-0.0584152714720485,9.99921044203816e-07
1.8999999999999998e-05,-0.05581991235401951,9.470983049947447e-07
1.95e-05,-0.04775463801722424,7.862884321366196e-07
1.9999999999999998e-05,-0.03324010822684009,5.358267949789973e-07
2.05e-05,-0.015487851848714485,2.2427076094938186e-07
2.1e-05,0.01053538616016425,-1.128563848734812e-07
2.1499999999999997e-05,0.03023359014303395,-4.3711576665093104e-07
2.2e-05,0.04365024497899839,-7.115356772092852e-07
2.2499999999999998e-05,0.054399730960417614,-9.048270524660188e-07
2.3e-05,0.05962861119394347,-9.949510169813001e-07
2.35e-05,0.05738927882288003,-9.71631732914674e-07
2.4e-05,0.04947227005227184,-8.375280400421423e-07
2.45e-05,0.037026903924784804,-6.07930297694606e-07
2.4999999999999998e-05,0.0202106755209428,-3.09016994374948e-07
2.55e-05,-0.0015962107425000482,2.5130095443337016e-08
2.6e-05,-0.022275220545211027,3.564118787132505e-07
2.65e-05,-0.03617328556373067,6.470559615694442e-07
2.7e-05,-0.05103803910676241,8.639234171928353e-07
2.7499999999999998e-05,-0.058917990724351554,9.82287250728688e-07
2.8e-05,-0.060180047620445265,9.88651744737914e-07
2.8499999999999998e-05,-0.05130896735207635,8.822912264349545e-07
2.9e-05,-0.041105439751239814,6.753328081210237e-07
2.95e-05,-0.026721529533668686,3.913736668372046e-07
2.9999999999999997e-05,-0.004349658604217765,6.279051952931557e-08
3.05e-05,0.019611651215072357,-2.7295193551732325e-07
3.1e-05,0.03840129335144837,-5.77572703422269e-07
3.15e-05,0.048252692078119,-8.16339250717183e-07
3.2e-05,0.05529971373419684,-9.620276715860854e-07
3.25e-05,0.05998732288414743,-9.980267284282717e-07
3.2999999999999996e-05,0.05553926452180846,-9.202318473658721e-07
3.35e-05,0.04754977314494724,-7.375131173581744e-07
3.4e-05,0.03126785923332065,-4.707039321653331e-07
3.45e-05,0.01161317043973753,-1.5022558912075744e-07
3.5e-05,-0.013650890506827551,1.8738131458572093e-07
3.5499999999999996e-05,-0.032328872305786405,5.036232016357578e-07
3.6e-05,-0.04885326103249099,7.62442511011448e-07
3.65e-05,-0.055062925700221754,9.343289424566121e-07
3.7e-05,-0.058758854422833906,9.996841892833e-07
3.75e-05,-0.05460755599441036,9.510565162951544e-07
3.7999999999999995e-05,-0.047802955738992736,7.939903986478369e-07
3.85e-05,-0.03411954784078475,5.463943467342681e-07
3.9e-05,-0.01769262724630316,2.3649899702372676e-07
3.95e-05,0.010144444339045933,-1.0036171485121293e-07
3.9999999999999996e-05,0.03012660113019372,-4.2577929156507105e-07
4.0499999999999995e-05,0.041415493322492836,-7.026499697988455e-07
4.1e-05,0.05437523416909684,-8.994052515663704e-07
4.15e-05,0.059985903145978625,-9.936113105200082e-07
4.2e-05,0.05738927882288003,-9.745268727865773e-07
4.2499999999999996e-05,0.05070146968499145,-8.443279255020174e-07
4.2999999999999995e-05,0.03700199921028258,-6.178596130903375e-07
4.35e-05,0.019659787938167028,-3.2094360980720983e-07
4.4e-05,-0.0003572125574677898,1.2566039883352439e-08
4.45e-05,-0.020985499129114515,3.4464292317451373e-07
4.4999999999999996e-05,-0.035740884129234374,6.374239897486871e-07
4.5499999999999995e-05,-0.050649976265388474,8.575266561936507e-07
4.6e-05,-0.05822886984003084,9.79855052384247e-07
4.65e-05,-0.0609658389978307,9.904614256966516e-07
4.7e-05,-0.052005916097899174,8.881364488135457e-07
4.7499999999999996e-05,-0.04143803349552577,6.845471059286904e-07
4.8e-05,-0.028263035042797924,4.029064357136646e-07
4.85e-05,-0.004736798837665646,7.532680552793464e-08
4.9e-05,0.018426099713435562,-2.608415062898953e-07
4.95e-05,0.03654675122682782,-5.672689491267553e-07
4.9999999999999996e-05,0.04918473596785944,-8.090169943749467e-07
5.05e-05,0.054946632047435884,-9.585217890173756e-07
5.1e-05,0.05998732288414743,-9.987369566060174e-07
5.15e-05,0.055397026464504506,-9.250772068344583e-07
5.2e-05,0.04739573563746724,-7.459411454241824e-07
5.2499999999999995e-05,0.030766523807212565,-4.817536741017217e-07
5.3e-05,0.01018035346056223,-1.6263716519488372e-07
5.35e-05,-0.012730804406354324,1.750230589752761e-07
5.4e-05,-0.03263742629505373,4.927273415482918e-07
5.4499999999999997e-05,-0.04932059662879951,7.542513807360994e-07
5.4999999999999995e-05,-0.055062925700221754,9.29776485888249e-07
5.55e-05,-0.059227079337620836,9.992894726405892e-07
5.6e-05,-0.05524344872829978,9.548645447466425e-07
5.65e-05,-0.04840668372223611,8.015669848708801e-07
5.6999999999999996e-05,-0.03517823534166986,5.568756164881927e-07
5.7499999999999995e-05,-0.018853285412426146,2.4868988716486003e-07
5.8e-05,0.007334870366527468,-8.785119655074504e-08
5.85e-05,0.030246528747296608,-4.1437558099327953e-07
5.9e-05,0.04246620104222032,-6.936533058128014e-07
5.9499999999999996e-05,0.05302883711697959,-8.938414241512616e-07
5.9999999999999995e-05,0.06047545680494615,-9.921147013144774e-07
6.05e-05,0.05738927882288003,-9.772681235681944e-07
6.1e-05,0.05035914419287657,-8.509944817946939e-07
6.149999999999999e-05,0.03675819199513519,-6.27691361290709e-07
6.2e-05,0.02244232675491631,-3.328195445229833e-07
6.25e-05,3.552713678800501e-15,-3.429630018249177e-21
6.3e-05,-0.022442326754912756,3.3281954452298363e-07
6.35e-05,-0.036758191995133416,6.276913612906982e-07
6.4e-05,-0.05035914419287657,8.509944817946903e-07
6.45e-05,-0.057389278822881806,9.77268123568193e-07
6.5e-05,-0.06047545680495148,9.92114701314478e-07
6.549999999999999e-05,-0.05302883711698314,8.93841424151268e-07
6.599999999999999e-05,-0.04246620104222387,6.936533058128116e-07
6.65e-05,-0.030246528747298385,4.143755809932858e-07
6.7e-05,-0.007334870366525692,8.78511965507448e-08
6.75e-05,0.0188532854124297,-2.486898871648534e-07
6.8e-05,0.035178235341673414,-5.568756164881869e-07
6.85e-05,0.048406683722234334,-8.015669848708759e-07
6.9e-05,0.055243448728298006,-9.548645447466427e-07
6.95e-05,0.05922707933761728,-9.992894726405895e-07
7e-05,0.055062925700221754,-9.29776485888254e-07
7.049999999999999e-05,0.04932059662879418,-7.542513807361086e-07
7.099999999999999e-05,0.0326374262950484,-4.927273415482978e-07
7.15e-05,0.012730804406354324,-1.7502305897527587e-07
7.2e-05,-0.010180353460565783,1.6263716519488396e-07
7.25e-05,-0.030766523807216117,4.817536741017157e-07
7.3e-05,-0.04739573563747079,7.459411454241827e-07
7.35e-05,-0.05539702646450273,9.250772068344556e-07
7.4e-05,-0.059987322884150984,9.987369566060172e-07
7.45e-05,-0.05494663204743766,9.585217890173775e-07
7.5e-05,-0.04918473596786477,8.090169943749506e-07
7.549999999999999e-05,-0.036546751226822494,5.672689491267608e-07
7.599999999999999e-05,-0.018426099713433786,2.6084150628990185e-07
7.65e-05,0.004736798837667422,-7.532680552793489e-08
7.7e-05,0.028263035042797924,-4.029064357136648e-07
7.75e-05,0.041438033495523996,-6.845471059286854e-07
7.8e-05,0.052005916097893845,-8.881364488135424e-07
7.85e-05,0.06096583899782537,-9.904614256966505e-07
7.9e-05,0.058228869840027286,-9.798550523842475e-07
7.95e-05,0.05064997626538492,-8.575266561936541e-07
7.999999999999999e-05,0.03574088412923082,-6.374239897486923e-07
8.049999999999999e-05,0.02098549912911274,-3.4464292317452686e-07
8.099999999999999e-05,0.0003572125574677898,-1.2566039883362848e-08
8.15e-05,-0.019659787938168805,3.209436098072067e-07
8.2e-05,-0.03700199921028613,6.178596130903322e-07
8.25e-05,-0.05070146968499323,8.443279255020138e-07
8.3e-05,-0.057389278822881806,9.745268727865766e-07
8.35e-05,-0.05998590314598218,9.936113105200086e-07
8.4e-05,-0.05437523416910395,8.994052515663718e-07
8.45e-05,-0.04141549332249461,7.026499697988555e-07
8.499999999999999e-05,-0.03012660113019905,4.2577929156508047e-07
8.549999999999999e-05,-0.010144444339045933,1.0036171485122329e-07
8.599999999999999e-05,0.017692627246304937,-2.3649899702371668e-07
8.65e-05,0.034119547840786524,-5.463943467342683e-07
8.7e-05,0.047802955738992736,-7.939903986478348e-07
8.75e-05,0.054607555994408585,-9.510565162951534e-07
8.8e-05,0.05875885442283035,-9.996841892833e-07
8.85e-05,0.055062925700221754,-9.343289424566146e-07
8.9e-05,0.048853261032483886,-7.624425110114524e-07
8.95e-05,0.032328872305786405,-5.036232016357668e-07
8.999999999999999e-05,0.013650890506831104,-1.8738131458573115e-07
9.049999999999999e-05,-0.01161317043973753,1.5022558912075066e-07
9.099999999999999e-05,-0.03126785923332065,4.7070393216532704e-07
9.15e-05,-0.04754977314494546,7.375131173581745e-07
9.2e-05,-0.05553926452181379,9.202318473658708e-07
9.25e-05,-0.059987322884150984,9.980267284282713e-07
9.3e-05,-0.05529971373419862,9.620276715860873e-07
9.35e-05,-0.04825269207812788,8.163392507171869e-07
9.4e-05,-0.038401293351443044,5.775727034222717e-07
9.449999999999999e-05,-0.01961165121507058,2.7295193551732987e-07
9.499999999999999e-05,0.004349658604219542,-6.279051952930873e-08
9.549999999999999e-05,0.026721529533663357,-3.913736668371983e-07
9.6e-05,0.04110543975123804,-6.753328081210212e-07
9.65e-05,0.051308967352074575,-8.822912264349514e-07
9.7e-05,0.06018004762044171,-9.886517447379133e-07
9.75e-05,0.05891799072434978,-9.822872507286893e-07
9.8e-05,0.051038039106760635,-8.63923417192837e-07
9.85e-05,0.03617328556373245,-6.470559615694467e-07
9.9e-05,0.022275220545211027,-3.564118787132535e-07
9.949999999999999e-05,0.0015962107425053773,-2.5130095443340325e-08
