time (s),power (mW),amplitude (m) = 1e-06,bundle radius = 0.0033,fiber radius = 0.0001875,# fibers = 220,beam waist = 0.00044081632653061224,cladding radius = 6.25e-05,total power (mW) = 90,sampling rate = 2000000.0,trace length = 0.0001,signal frequency = 108000.0
0.0,-0.32840777107083596,1e-06
5e-07,-0.3077834688370409,9.429905358928645e-07
1e-06,-0.2526492198044963,7.784623015670234e-07
1.5e-06,-0.17850627982858924,5.251746299612957e-07
2e-06,-0.0685697527441178,2.1200710992205473e-07
2.4999999999999998e-06,0.03646477041485241,-1.2533323356430415e-07
3e-06,0.1517271405856775,-4.483832160900321e-07
3.5e-06,0.23023412439587787,-7.203090248879069e-07
4e-06,0.3002219334994898,-9.101059706849956e-07
4.5e-06,0.32805236593364384,-9.961336091431724e-07
4.9999999999999996e-06,0.31808016538503736,-9.685831611286312e-07
5.5e-06,0.27055302435963924,-8.305958991958126e-07
6e-06,0.19560112102035632,-5.97904983057519e-07
6.5e-06,0.09691680962920302,-2.97041581577035e-07
7e-06,-0.008626597784502366,3.769018266993467e-08
7.499999999999999e-06,-0.12107351584719339,3.681245526846774e-07
8e-06,-0.21035256561430415,6.565857557529562e-07
8.5e-06,-0.2835771168608012,8.701837546695255e-07
9e-06,-0.32483064888829105,9.845643345292053e-07
9.499999999999999e-06,-0.32575653606620136,9.86685944207868e-07
9.999999999999999e-06,-0.2868000804795088,8.763066800438638e-07
1.05e-05,-0.21215036480104743,6.660118674342518e-07
1.1e-05,-0.12500871717558937,3.797790955218012e-07
1.15e-05,-0.011397763784241732,5.0244318179769394e-08
1.2e-05,0.0917183731731761,-2.850192624699756e-07
1.2499999999999999e-05,0.19319383343943386,-5.877852522924729e-07
1.3e-05,0.27007692886446577,-8.235325976284273e-07
1.35e-05,0.31686317114295903,-9.653816388332737e-07
1.4e-05,0.3284077710708111,-9.97158900260614e-07
1.45e-05,0.30238502874122375,-9.152411726209174e-07
1.4999999999999999e-05,0.2334480128442138,-7.289686274214123e-07
1.55e-05,0.15490901386497313,-4.595798606214871e-07
1.6e-05,0.040123605609654334,-1.3779029068463877e-07
1.6499999999999998e-05,-0.06350123074177816,1.9970998051440476e-07
1.7e-05,-0.17286439999987024,5.144395337815062e-07
1.75e-05,-0.2493154781567064,7.70513242775788e-07
1.8e-05,-0.306933729155098,9.387338576538741e-07
1.85e-05,-0.32840777107083596,9.99921044203816e-07
1.8999999999999998e-05,-0.3089127925878614,9.470983049947447e-07
1.95e-05,-0.2557581444779373,7.862884321366196e-07
1.9999999999999998e-05,-0.18045548368536402,5.358267949789973e-07
2.05e-05,-0.07480217550368806,2.2427076094938186e-07
2.1e-05,0.03194758525544117,-1.128563848734812e-07
2.1499999999999997e-05,0.14554263248454902,-4.3711576665093104e-07
2.2e-05,0.22831713833170753,-7.115356772092852e-07
2.2499999999999998e-05,0.29794401947113514,-9.048270524660188e-07
2.3e-05,0.32805236593364384,-9.949510169813001e-07
2.35e-05,0.3202124690228203,-9.71631732914674e-07
2.4e-05,0.27230283373528863,-8.375280400421423e-07
2.45e-05,0.19787097888676897,-6.07930297694606e-07
2.4999999999999998e-05,0.10236227497410866,-3.09016994374948e-07
2.55e-05,-0.006917277538367017,2.5130095443337016e-08
2.6e-05,-0.11550204490024996,3.564118787132505e-07
2.65e-05,-0.2052017098387502,6.470559615694442e-07
2.7e-05,-0.2822860105083542,8.639234171928353e-07
2.7499999999999998e-05,-0.3234151761946116,9.82287250728688e-07
2.8e-05,-0.32669999966840635,9.88651744737914e-07
2.8499999999999998e-05,-0.2887749781449003,8.822912264349545e-07
2.9e-05,-0.2144139203538451,6.753328081210237e-07
2.95e-05,-0.13020851455229732,3.913736668372046e-07
2.9999999999999997e-05,-0.013788482948616121,6.279051952931557e-08
3.05e-05,0.08713663022113494,-2.7295193551732325e-07
3.1e-05,0.1885573614020828,-5.77572703422269e-07
3.15e-05,0.26821348187522887,-8.16339250717183e-07
3.2e-05,0.316459339129306,-9.620276715860854e-07
3.25e-05,0.3284077710708111,-9.980267284282717e-07
3.2999999999999996e-05,0.3041726110632048,-9.202318473658721e-07
3.35e-05,0.2395658174921138,-7.375131173581744e-07
3.4e-05,0.1589417166908973,-4.707039321653331e-07
3.45e-05,0.04630840511050849,-1.5022558912075744e-07
3.5e-05,-0.059373654613104065,1.8738131458572093e-07
3.5499999999999996e-05,-0.17155667592434654,5.036232016357578e-07
3.6e-05,-0.24751408407747633,7.62442511011448e-07
3.65e-05,-0.3054987623540022,9.343289424566121e-07
3.7e-05,-0.32840777107083596,9.996841892833e-07
3.75e-05,-0.31206023723357035,9.510565162951544e-07
3.7999999999999995e-05,-0.25870120897481996,7.939903986478369e-07
3.85e-05,-0.18285452199367924,5.463943467342681e-07
3.9e-05,-0.0782184436036033,2.3649899702372676e-07
3.95e-05,0.026400897905528353,-1.0036171485121293e-07
3.9999999999999996e-05,0.14135532048397792,-4.2577929156507105e-07
4.0499999999999995e-05,0.22651808673213836,-7.026499697988455e-07
4.1e-05,0.2970707073117467,-8.994052515663704e-07
4.15e-05,0.32805236593364384,-9.936113105200082e-07
4.2e-05,0.32109718988439084,-9.745268727865773e-07
4.2499999999999996e-05,0.2740147336810459,-8.443279255020174e-07
4.2999999999999995e-05,0.20047819177031556,-6.178596130903375e-07
4.35e-05,0.10657753899616296,-3.2094360980720983e-07
4.4e-05,-0.003746631295740599,1.2566039883352439e-08
4.45e-05,-0.11316517102385149,3.4464292317451373e-07
4.4999999999999996e-05,-0.20325094682154443,6.374239897486871e-07
4.5499999999999995e-05,-0.2785068319179267,8.575266561936507e-07
4.6e-05,-0.3234151761946116,9.79855052384247e-07
4.65e-05,-0.32669999966840635,9.904614256966516e-07
4.7e-05,-0.29248348833388604,8.881364488135457e-07
4.7499999999999996e-05,-0.21775766533244933,6.845471059286904e-07
4.8e-05,-0.13484430560263405,4.029064357136646e-07
4.85e-05,-0.019458902816882784,7.532680552793464e-08
4.9e-05,0.08265293854303835,-2.608415062898953e-07
4.95e-05,0.1858353557348167,-5.672689491267553e-07
4.9999999999999996e-05,0.2653361217965937,-8.090169943749467e-07
5.05e-05,0.3151419556248136,-9.585217890173756e-07
5.1e-05,0.3284077710708111,-9.987369566060174e-07
5.15e-05,0.3050238555975966,-9.250772068344583e-07
5.2e-05,0.24235034196513894,-7.459411454241824e-07
5.2499999999999995e-05,0.16357740013348732,-4.817536741017217e-07
5.3e-05,0.05186510805040001,-1.6263716519488372e-07
5.35e-05,-0.05530195699146745,1.750230589752761e-07
5.4e-05,-0.16785738303689257,4.927273415482918e-07
5.4499999999999997e-05,-0.24552497345030844,7.542513807360994e-07
5.4999999999999995e-05,-0.3050238555976357,9.29776485888249e-07
5.55e-05,-0.32840777107083596,9.992894726405892e-07
5.6e-05,-0.3129293793084358,9.548645447466425e-07
5.65e-05,-0.2613911250809693,8.015669848708801e-07
5.6999999999999996e-05,-0.18404842252904174,5.568756164881927e-07
5.7499999999999995e-05,-0.07916210747495711,2.4868988716486003e-07
5.8e-05,0.022560831581959206,-8.785119655074504e-08
5.85e-05,0.13655328684577484,-4.1437558099327953e-07
5.9e-05,0.221455858940935,-6.936533058128014e-07
5.9499999999999996e-05,0.2932893407066537,-8.938414241512616e-07
5.9999999999999995e-05,0.32762273327664815,-9.921147013144774e-07
6.05e-05,0.32206433581883687,-9.772681235681944e-07
6.1e-05,0.2771399190653909,-8.509944817946939e-07
6.149999999999999e-05,0.2018207547507238,-6.27691361290709e-07
6.2e-05,0.11141684725439305,-3.328195445229833e-07
6.25e-05,-1.0658141036401503e-14,-3.429630018249177e-21
6.3e-05,-0.11141684725441081,3.3281954452298363e-07
6.35e-05,-0.2018207547507238,6.276913612906982e-07
6.4e-05,-0.2771399190653767,8.509944817946903e-07
6.45e-05,-0.32206433581885463,9.77268123568193e-07
6.5e-05,-0.327622733276673,9.92114701314478e-07
6.549999999999999e-05,-0.29328934070667856,8.93841424151268e-07
6.599999999999999e-05,-0.22145585894091724,6.936533058128116e-07
6.65e-05,-0.13655328684578905,4.143755809932858e-07
6.7e-05,-0.022560831581994734,8.78511965507448e-08
6.75e-05,0.07916210747491803,-2.486898871648534e-07
6.8e-05,0.18404842252900977,-5.568756164881869e-07
6.85e-05,0.2613911250809764,-8.015669848708759e-07
6.9e-05,0.31292937930840026,-9.548645447466427e-07
6.95e-05,0.3284077710708111,-9.992894726405895e-07
7e-05,0.3050238555975966,-9.29776485888254e-07
7.049999999999999e-05,0.24552497345032975,-7.542513807361086e-07
7.099999999999999e-05,0.1678573830368748,-4.927273415482978e-07
7.15e-05,0.055301956991435475,-1.7502305897527587e-07
7.2e-05,-0.05186510805042843,1.6263716519488396e-07
7.25e-05,-0.16357740013352284,4.817536741017157e-07
7.3e-05,-0.24235034196512117,7.459411454241827e-07
7.35e-05,-0.3050238555976357,9.250772068344556e-07
7.4e-05,-0.32840777107083596,9.987369566060172e-07
7.45e-05,-0.3151419556248456,9.585217890173775e-07
7.5e-05,-0.2653361217965795,8.090169943749506e-07
7.549999999999999e-05,-0.18583535573484156,5.672689491267608e-07
7.599999999999999e-05,-0.08265293854307387,2.6084150628990185e-07
7.65e-05,0.019458902816843704,-7.532680552793489e-08
7.7e-05,0.1348443056026376,-4.029064357136648e-07
7.75e-05,0.21775766533246355,-6.845471059286854e-07
7.8e-05,0.2924834883338576,-8.881364488135424e-07
7.85e-05,0.32669999966838503,-9.904614256966505e-07
7.9e-05,0.3234151761945938,-9.798550523842475e-07
7.95e-05,0.27850683191793735,-8.575266561936541e-07
7.999999999999999e-05,0.20325094682155154,-6.374239897486923e-07
8.049999999999999e-05,0.11316517102383372,-3.4464292317452686e-07
8.099999999999999e-05,0.00374663129571573,-1.2566039883362848e-08
8.15e-05,-0.10657753899620204,3.209436098072067e-07
8.2e-05,-0.20047819177032267,6.178596130903322e-07
8.25e-05,-0.27401473368102813,8.443279255020138e-07
8.3e-05,-0.32109718988441216,9.745268727865766e-07
8.35e-05,-0.32805236593366516,9.936113105200086e-07
8.4e-05,-0.29707070731175733,8.994052515663718e-07
8.45e-05,-0.2265180867321135,7.026499697988555e-07
8.499999999999999e-05,-0.14135532048397081,4.2577929156508047e-07
8.549999999999999e-05,-0.026400897905556775,1.0036171485122329e-07
8.599999999999999e-05,0.07821844360356067,-2.3649899702371668e-07
8.65e-05,0.18285452199365793,-5.463943467342683e-07
8.7e-05,0.2587012089748235,-7.939903986478348e-07
8.75e-05,0.3120602372335348,-9.510565162951534e-07
8.8e-05,0.3284077710708111,-9.996841892833e-07
8.85e-05,0.30549876235395956,-9.343289424566146e-07
8.9e-05,0.24751408407749764,-7.624425110114524e-07
8.95e-05,0.17155667592432167,-5.036232016357668e-07
8.999999999999999e-05,0.05937365461307209,-1.8738131458573115e-07
9.049999999999999e-05,-0.046308405110529804,1.5022558912075066e-07
9.099999999999999e-05,-0.15894171669092572,4.7070393216532704e-07
9.15e-05,-0.23956581749207828,7.375131173581745e-07
9.2e-05,-0.3041726110632368,9.202318473658708e-07
9.25e-05,-0.32840777107083596,9.980267284282713e-07
9.3e-05,-0.316459339129338,9.620276715860873e-07
9.35e-05,-0.26821348187521465,8.163392507171869e-07
9.4e-05,-0.18855736140210766,5.775727034222717e-07
9.449999999999999e-05,-0.08713663022115625,2.7295193551732987e-07
9.499999999999999e-05,0.013788482948591252,-6.279051952930873e-08
9.549999999999999e-05,0.13020851455229376,-3.913736668371983e-07
9.6e-05,0.21441392035386286,-6.753328081210212e-07
9.65e-05,0.28877497814488606,-8.822912264349514e-07
9.7e-05,0.32669999966838503,-9.886517447379133e-07
9.75e-05,0.3234151761945938,-9.822872507286893e-07
9.8e-05,0.28228601050834357,-8.63923417192837e-07
9.85e-05,0.2052017098387644,-6.470559615694467e-07
9.9e-05,0.11550204490023219,-3.564118787132535e-07
9.949999999999999e-05,0.0069172775383492535,-2.5130095443340325e-08
