time (s),power (mW),amplitude (m) = 1e-06,bundle radius = 0.0033,fiber radius = 0.0001875,# fibers = 220,beam waist = 0.0005214285714285714,cladding radius = 6.25e-05,total power (mW) = 90,sampling rate = 2000000.0,trace length = 0.0001,signal frequency = 108000.0
0.0,-0.22866708145914671,1e-06
5e-07,-0.22186685113156202,9.429905358928645e-07
1e-06,-0.175624727844923,7.784623015670234e-07
1.5e-06,-0.12165143773796672,5.251746299612957e-07
2e-06,-0.04947267779375153,2.1200710992205473e-07
2.4999999999999998e-06,0.02516819391615499,-1.2533323356430415e-07
3e-06,0.09971579646849449,-4.483832160900321e-07
3.5e-06,0.16475778785671835,-7.203090248879069e-07
4e-06,0.2101132551200351,-9.101059706849956e-07
4.5e-06,0.22866708145912895,-9.961336091431724e-07
4.9999999999999996e-06,0.22630127353843577,-9.685831611286312e-07
5.5e-06,0.1882842802771698,-8.305958991958126e-07
6e-06,0.14081533862360374,-5.97904983057519e-07
6.5e-06,0.06840697358958536,-2.97041581577035e-07
7e-06,-0.008793998324701846,3.769018266993467e-08
7.499999999999999e-06,-0.08641766853748578,3.681245526846774e-07
8e-06,-0.15224437952516112,6.565857557529562e-07
8.5e-06,-0.20066693741835806,8.701837546695255e-07
9e-06,-0.22769332997884106,9.845643345292053e-07
9.499999999999999e-06,-0.22769332997884106,9.86685944207868e-07
9.999999999999999e-06,-0.20156588130202024,8.763066800438638e-07
1.05e-05,-0.1559081218721019,6.660118674342518e-07
1.1e-05,-0.09022851871776183,3.797790955218012e-07
1.15e-05,-0.009789005078708612,5.0244318179769394e-08
1.2e-05,0.06790970361121751,-2.850192624699756e-07
1.2499999999999999e-05,0.13807250395347026,-5.877852522924729e-07
1.3e-05,0.1868136412817556,-8.235325976284273e-07
1.35e-05,0.22630127353843577,-9.653816388332737e-07
1.4e-05,0.22866708145912895,-9.97158900260614e-07
1.45e-05,0.2114376340433033,-9.152411726209174e-07
1.4999999999999999e-05,0.1675438727501941,-7.289686274214123e-07
1.55e-05,0.10444407391065269,-4.595798606214871e-07
1.6e-05,0.028493189501762828,-1.3779029068463877e-07
1.6499999999999998e-05,-0.04660780129036013,1.9970998051440476e-07
1.7e-05,-0.11873879959869171,5.144395337815062e-07
1.75e-05,-0.17475920451627758,7.70513242775788e-07
1.8e-05,-0.22063507360834933,9.387338576538741e-07
1.85e-05,-0.22866708145914671,9.99921044203816e-07
1.8999999999999998e-05,-0.22329129206531562,9.470983049947447e-07
1.95e-05,-0.1786429749717442,7.862884321366196e-07
1.9999999999999998e-05,-0.12440192282711138,5.358267949789973e-07
2.05e-05,-0.05212357346410812,2.2427076094938186e-07
2.1e-05,0.023481856494765196,-1.128563848734812e-07
2.1499999999999997e-05,0.09609193906998215,-4.3711576665093104e-07
2.2e-05,0.1632099466077399,-7.115356772092852e-07
2.2499999999999998e-05,0.20925937830315533,-9.048270524660188e-07
2.3e-05,0.22866708145912895,-9.949510169813001e-07
2.35e-05,0.22769332997882685,-9.71631732914674e-07
2.4e-05,0.1916764465039087,-8.375280400421423e-07
2.45e-05,0.14426256640401292,-6.07930297694606e-07
2.4999999999999998e-05,0.06937427641971894,-3.09016994374948e-07
2.55e-05,-0.0032175962664879876,2.5130095443337016e-08
2.6e-05,-0.08350003554756213,3.564118787132505e-07
2.65e-05,-0.15030907671389926,6.470559615694442e-07
2.7e-05,-0.19971000479985435,8.639234171928353e-07
2.7499999999999998e-05,-0.22769332997884106,9.82287250728688e-07
2.8e-05,-0.22769332997884106,9.88651744737914e-07
2.8499999999999998e-05,-0.20312065923371847,8.822912264349545e-07
2.9e-05,-0.1576138460811265,6.753328081210237e-07
2.95e-05,-0.09121186955635707,3.913736668372046e-07
2.9999999999999997e-05,-0.011703111423067014,6.279051952931557e-08
3.05e-05,0.06651706495789966,-2.7295193551732325e-07
3.1e-05,0.1356944403753424,-5.77572703422269e-07
3.15e-05,0.18406982171316244,-8.16339250717183e-07
3.2e-05,0.22630127353843577,-9.620276715860854e-07
3.25e-05,0.22866708145912895,-9.980267284282717e-07
3.2999999999999996e-05,0.21324092166263497,-9.202318473658721e-07
3.35e-05,0.16988702026803182,-7.375131173581744e-07
3.4e-05,0.10844919481671056,-4.707039321653331e-07
3.45e-05,0.03282516098280297,-1.5022558912075744e-07
3.5e-05,-0.0427425486721873,1.8738131458572093e-07
3.5499999999999996e-05,-0.11676604180329164,5.036232016357578e-07
3.6e-05,-0.1723529243742199,7.62442511011448e-07
3.65e-05,-0.2178621902142801,9.343289424566121e-07
3.7e-05,-0.22866708145914671,9.996841892833e-07
3.75e-05,-0.22388312545798783,9.510565162951544e-07
3.7999999999999995e-05,-0.1799835314824385,7.939903986478369e-07
3.85e-05,-0.12821663946080974,5.463943467342681e-07
3.9e-05,-0.0566250556156227,2.3649899702372676e-07
3.95e-05,0.020193393127495796,-1.0036171485121293e-07
3.9999999999999996e-05,0.09357735312615745,-4.2577929156507105e-07
4.0499999999999995e-05,0.16121990053000346,-7.026499697988455e-07
4.1e-05,0.20787476589412535,-8.994052515663704e-07
4.15e-05,0.22866708145912895,-9.936113105200082e-07
4.2e-05,0.22769332997882685,-9.745268727865773e-07
4.2499999999999996e-05,0.19309393188969182,-8.443279255020174e-07
4.2999999999999995e-05,0.14512777969036605,-6.178596130903375e-07
4.35e-05,0.07220500612649872,-3.2094360980720983e-07
4.4e-05,-0.0016197400636670523,1.2566039883352439e-08
4.45e-05,-0.0795818490139304,3.4464292317451373e-07
4.4999999999999996e-05,-0.14888997426506378,6.374239897486871e-07
4.5499999999999995e-05,-0.1978294933423932,8.575266561936507e-07
4.6e-05,-0.22769332997884106,9.79855052384247e-07
4.65e-05,-0.22819093583074945,9.904614256966516e-07
4.7e-05,-0.20451716960278432,8.881364488135457e-07
4.7499999999999996e-05,-0.15897935733857338,6.845471059286904e-07
4.8e-05,-0.09218414111869322,4.029064357136646e-07
4.85e-05,-0.01497064977518292,7.532680552793464e-08
4.9e-05,0.06457409279736837,-2.608415062898953e-07
4.95e-05,0.1349341133759019,-5.672689491267553e-07
4.9999999999999996e-05,0.18419752598223482,-8.090169943749467e-07
5.05e-05,0.22630127353843577,-9.585217890173756e-07
5.1e-05,0.22866708145912895,-9.987369566060174e-07
5.15e-05,0.2154361699751206,-9.250772068344583e-07
5.2e-05,0.17053868425914231,-7.459411454241824e-07
5.2499999999999995e-05,0.1106241252750273,-4.817536741017217e-07
5.3e-05,0.03713755989454626,-1.6263716519488372e-07
5.35e-05,-0.040876735256663466,1.750230589752761e-07
5.4e-05,-0.11300886690526468,4.927273415482918e-07
5.4499999999999997e-05,-0.1709987996831579,7.542513807360994e-07
5.4999999999999995e-05,-0.21641084273962008,9.29776485888249e-07
5.55e-05,-0.22866708145914671,9.992894726405892e-07
5.6e-05,-0.2253355967616244,9.548645447466425e-07
5.65e-05,-0.18264209144305354,8.015669848708801e-07
5.6999999999999996e-05,-0.13209639265625484,5.568756164881927e-07
5.7499999999999995e-05,-0.06161901411626758,2.4868988716486003e-07
5.8e-05,0.01727286083679047,-8.785119655074504e-08
5.85e-05,0.09218414111870388,-4.1437558099327953e-07
5.9e-05,0.160099198001749,-6.936533058128014e-07
5.9499999999999996e-05,0.20687585058431068,-8.938414241512616e-07
5.9999999999999995e-05,0.22866708145912895,-9.921147013144774e-07
6.05e-05,0.22769332997882685,-9.772681235681944e-07
6.1e-05,0.19598282938949652,-8.509944817946939e-07
6.149999999999999e-05,0.14753310523158447,-6.27691361290709e-07
6.2e-05,0.07601135549480631,-3.328195445229833e-07
6.25e-05,7.105427357601002e-15,-3.429630018249177e-21
6.3e-05,-0.07601135549480631,3.3281954452298363e-07
6.35e-05,-0.1475331052315738,6.276913612906982e-07
6.4e-05,-0.19598282938950007,8.509944817946903e-07
6.45e-05,-0.22769332997884106,9.77268123568193e-07
6.5e-05,-0.22866708145914671,9.92114701314478e-07
6.549999999999999e-05,-0.20687585058430358,8.93841424151268e-07
6.599999999999999e-05,-0.1600991980017632,6.936533058128116e-07
6.65e-05,-0.09218414111869322,4.143755809932858e-07
6.7e-05,-0.017272860836772708,8.78511965507448e-08
6.75e-05,0.061619014116303106,-2.486898871648534e-07
6.8e-05,0.1320963926562584,-5.568756164881869e-07
6.85e-05,0.18264209144303223,-8.015669848708759e-07
6.9e-05,0.22533559676161374,-9.548645447466427e-07
6.95e-05,0.22866708145912895,-9.992894726405895e-07
7e-05,0.21641084273964495,-9.29776485888254e-07
7.049999999999999e-05,0.17099879968313658,-7.542513807361086e-07
7.099999999999999e-05,0.11300886690527179,-4.927273415482978e-07
7.15e-05,0.04087673525668478,-1.7502305897527587e-07
7.2e-05,-0.037137559894517835,1.6263716519488396e-07
7.25e-05,-0.11062412527502019,4.817536741017157e-07
7.3e-05,-0.17053868425916363,7.459411454241827e-07
7.35e-05,-0.2154361699750993,9.250772068344556e-07
7.4e-05,-0.22866708145914671,9.987369566060172e-07
7.45e-05,-0.22630127353845353,9.585217890173775e-07
7.5e-05,-0.18419752598224903,8.090169943749506e-07
7.549999999999999e-05,-0.13493411337588057,5.672689491267608e-07
7.599999999999999e-05,-0.06457409279734705,2.6084150628990185e-07
7.65e-05,0.014970649775200684,-7.532680552793489e-08
7.7e-05,0.09218414111870388,-4.029064357136648e-07
7.75e-05,0.15897935733856627,-6.845471059286854e-07
7.8e-05,0.20451716960280208,-8.881364488135424e-07
7.85e-05,0.22819093583073524,-9.904614256966505e-07
7.9e-05,0.22769332997882685,-9.798550523842475e-07
7.95e-05,0.1978294933423861,-8.575266561936541e-07
7.999999999999999e-05,0.14888997426507444,-6.374239897486923e-07
8.049999999999999e-05,0.07958184901392329,-3.4464292317452686e-07
8.099999999999999e-05,0.0016197400636883685,-1.2566039883362848e-08
8.15e-05,-0.0722050061264845,3.209436098072067e-07
8.2e-05,-0.1451277796903554,6.178596130903322e-07
8.25e-05,-0.19309393188969182,8.443279255020138e-07
8.3e-05,-0.22769332997884106,9.745268727865766e-07
8.35e-05,-0.22866708145914671,9.936113105200086e-07
8.4e-05,-0.20787476589411114,8.994052515663718e-07
8.45e-05,-0.16121990053002122,7.026499697988555e-07
8.499999999999999e-05,-0.09357735312614324,4.2577929156508047e-07
8.549999999999999e-05,-0.020193393127467374,1.0036171485122329e-07
8.599999999999999e-05,0.05662505561566533,-2.3649899702371668e-07
8.65e-05,0.1282166394608062,-5.463943467342683e-07
8.7e-05,0.1799835314824172,-7.939903986478348e-07
8.75e-05,0.22388312545798428,-9.510565162951534e-07
8.8e-05,0.22866708145912895,-9.996841892833e-07
8.85e-05,0.21786219021429432,-9.343289424566146e-07
8.9e-05,0.17235292437419858,-7.624425110114524e-07
8.95e-05,0.1167660418032952,-5.036232016357668e-07
8.999999999999999e-05,0.042742548672197955,-1.8738131458573115e-07
9.049999999999999e-05,-0.03282516098277455,1.5022558912075066e-07
9.099999999999999e-05,-0.10844919481670345,4.7070393216532704e-07
9.15e-05,-0.16988702026804958,7.375131173581745e-07
9.2e-05,-0.21324092166261366,9.202318473658708e-07
9.25e-05,-0.22866708145914671,9.980267284282713e-07
9.3e-05,-0.22630127353845353,9.620276715860873e-07
9.35e-05,-0.1840698217131731,8.163392507171869e-07
9.4e-05,-0.13569444037532108,5.775727034222717e-07
9.449999999999999e-05,-0.06651706495787835,2.7295193551732987e-07
9.499999999999999e-05,0.011703111423081225,-6.279051952930873e-08
9.549999999999999e-05,0.09121186955636773,-3.913736668371983e-07
9.6e-05,0.1576138460811265,-6.753328081210212e-07
9.65e-05,0.20312065923373268,-8.822912264349514e-07
9.7e-05,0.22769332997882685,-9.886517447379133e-07
9.75e-05,0.22769332997882685,-9.822872507286893e-07
9.8e-05,0.1997100047998579,-8.63923417192837e-07
9.85e-05,0.15030907671389926,-6.470559615694467e-07
9.9e-05,0.08350003554756213,-3.564118787132535e-07
9.949999999999999e-05,0.003217596266509304,-2.5130095443340325e-08
