time (s),power (mW),amplitude (m) = 1e-06,bundle radius = 0.0033,fiber radius = 0.0001875,# fibers = 128,beam waist = 0.004874489795918367,cladding radius = 6.25e-05,total power (mW) = 90,sampling rate = 2000000.0,trace length = 0.0001,signal frequency = 108000.0
0.0,-0.0225061483295228,1e-06
5e-07,-0.020834912373629777,9.429905358928645e-07
1e-06,-0.017489392456819797,7.784623015670234e-07
1.5e-06,-0.013472974776575164,5.251746299612957e-07
2e-06,-0.006672950385937959,2.1200710992205473e-07
2.4999999999999998e-06,0.004018840021541514,-1.2533323356430415e-07
3e-06,0.011470725746689059,-4.483832160900321e-07
3.5e-06,0.01749691965247946,-7.203090248879069e-07
4e-06,0.02018457400203344,-9.101059706849956e-07
4.5e-06,0.022179790715065373,-9.961336091431724e-07
4.9999999999999996e-06,0.021175812692499907,-9.685831611286312e-07
5.5e-06,0.019499495319224458,-8.305958991958126e-07
6e-06,0.014826074837908987,-5.97904983057519e-07
6.5e-06,0.009030182049550639,-2.97041581577035e-07
7e-06,-0.0010221664017113774,3.769018266993467e-08
7.499999999999999e-06,-0.010100958886214428,3.681245526846774e-07
8e-06,-0.016829312443362276,6.565857557529562e-07
8.5e-06,-0.01952596489762115,8.701837546695255e-07
9e-06,-0.022190358575603142,9.845643345292053e-07
9.499999999999999e-06,-0.022190358575603142,9.86685944207868e-07
9.999999999999999e-06,-0.01952596489762115,8.763066800438638e-07
1.05e-05,-0.017170659742352434,6.660118674342518e-07
1.1e-05,-0.010100958886214428,3.797790955218012e-07
1.15e-05,-0.0013485945850968406,5.0244318179769394e-08
1.2e-05,0.009030182049550639,-2.850192624699756e-07
1.2499999999999999e-05,0.014507890480695451,-5.877852522924729e-07
1.3e-05,0.019499495319224458,-8.235325976284273e-07
1.35e-05,0.02051183882202956,-9.653816388332737e-07
1.4e-05,0.022506148329522357,-9.97158900260614e-07
1.45e-05,0.020501523332682403,-9.152411726209174e-07
1.4999999999999999e-05,0.016508805938867166,-7.289686274214123e-07
1.55e-05,0.012145943091004252,-4.595798606214871e-07
1.6e-05,0.004332824289389414,-1.3779029068463877e-07
1.6499999999999998e-05,-0.006994965947546561,1.9970998051440476e-07
1.7e-05,-0.01314100997990808,5.144395337815062e-07
1.75e-05,-0.017489392456819797,7.70513242775788e-07
1.8e-05,-0.020834912373629777,9.387338576538741e-07
1.85e-05,-0.0225061483295228,9.99921044203816e-07
1.8999999999999998e-05,-0.020834912373629777,9.470983049947447e-07
1.95e-05,-0.018467077602218662,7.862884321366196e-07
1.9999999999999998e-05,-0.013151888898970121,5.358267949789973e-07
2.05e-05,-0.00732102310129612,2.2427076094938186e-07
2.1e-05,0.0030245598121463324,-1.128563848734812e-07
2.1499999999999997e-05,0.011462058086035398,-4.3711576665093104e-07
2.2e-05,0.01715669176953316,-7.115356772092852e-07
2.2499999999999998e-05,0.019854810321418004,-9.048270524660188e-07
2.3e-05,0.022179790715065373,-9.949510169813001e-07
2.35e-05,0.021187762282682154,-9.71631732914674e-07
2.4e-05,0.01951077239173804,-8.375280400421423e-07
2.45e-05,0.01548607923450307,-6.07930297694606e-07
2.4999999999999998e-05,0.0090438479773578,-3.09016994374948e-07
2.55e-05,-0.0006889661110602852,2.5130095443337016e-08
2.6e-05,-0.010100958886214428,3.564118787132505e-07
2.65e-05,-0.016178256443042383,6.470559615694442e-07
2.7e-05,-0.01918939315470025,8.639234171928353e-07
2.7499999999999998e-05,-0.021518993519666463,9.82287250728688e-07
2.8e-05,-0.022190358575603142,9.88651744737914e-07
2.8499999999999998e-05,-0.01987056949635546,8.822912264349545e-07
2.9e-05,-0.017170659742352434,6.753328081210237e-07
2.95e-05,-0.009781614579825071,3.913736668372046e-07
2.9999999999999997e-05,-0.0026929082365496626,6.279051952931557e-08
3.05e-05,0.007689279239131874,-2.7295193551732325e-07
3.1e-05,0.014176291487358661,-5.77572703422269e-07
3.15e-05,0.019478555152439014,-8.16339250717183e-07
3.2e-05,0.02051183882202956,-9.620276715860854e-07
3.25e-05,0.022506148329522357,-9.980267284282717e-07
3.2999999999999996e-05,0.020501523332682403,-9.202318473658721e-07
3.35e-05,0.016508805938867166,-7.375131173581744e-07
3.4e-05,0.012800974723308656,-4.707039321653331e-07
3.45e-05,0.005002561948614925,-1.5022558912075744e-07
3.5e-05,-0.006647836358922188,1.8738131458572093e-07
3.5499999999999996e-05,-0.013137313339130596,5.036232016357578e-07
3.6e-05,-0.017489392456819797,7.62442511011448e-07
3.65e-05,-0.020834912373629777,9.343289424566121e-07
3.7e-05,-0.0225061483295228,9.996841892833e-07
3.75e-05,-0.02051183882202956,9.510565162951544e-07
3.7999999999999995e-05,-0.018467077602218662,7.939903986478369e-07
3.85e-05,-0.013482666307704783,5.463943467342681e-07
3.9e-05,-0.007649850686931359,2.3649899702372676e-07
3.95e-05,0.0026790739314614953,-1.0036171485121293e-07
3.9999999999999996e-05,0.011786672685284216,-4.2577929156507105e-07
4.0499999999999995e-05,0.01715669176953316,-7.026499697988455e-07
4.1e-05,0.020200640588534657,-8.994052515663704e-07
4.15e-05,0.021848262246064287,-9.936113105200082e-07
4.2e-05,0.021187762282682154,-9.745268727865773e-07
4.2499999999999996e-05,0.01951077239173804,-8.443279255020174e-07
4.2999999999999995e-05,0.015822984846087795,-6.178596130903375e-07
4.35e-05,0.00905707424235036,-3.2094360980720983e-07
4.4e-05,8.881784197001252e-16,1.2566039883352439e-08
4.45e-05,-0.009735568127560601,3.4464292317451373e-07
4.4999999999999996e-05,-0.01583040814200931,6.374239897486871e-07
4.5499999999999995e-05,-0.01951077239173804,8.575266561936507e-07
4.6e-05,-0.021518993519666463,9.79855052384247e-07
4.65e-05,-0.022190358575603142,9.904614256966516e-07
4.7e-05,-0.020204551385381464,8.881364488135457e-07
4.7499999999999996e-05,-0.017170659742352434,6.845471059286904e-07
4.8e-05,-0.010460302948289257,4.029064357136646e-07
4.85e-05,-0.0027002318280229254,7.532680552793464e-08
4.9e-05,0.008016250715967121,-2.608415062898953e-07
4.95e-05,0.014497440187640986,-5.672689491267553e-07
4.9999999999999996e-05,0.018808987882082295,-8.090169943749467e-07
5.05e-05,0.02051183882202956,-9.585217890173756e-07
5.1e-05,0.022506148329522357,-9.987369566060174e-07
5.15e-05,0.020501523332682403,-9.250772068344583e-07
5.2e-05,0.016826623622268944,-7.459411454241824e-07
5.2499999999999995e-05,0.013125859607545642,-4.817536741017217e-07
5.3e-05,0.005342720623140007,-1.6263716519488372e-07
5.35e-05,-0.005680047025625079,1.750230589752761e-07
5.4e-05,-0.012803137863232728,4.927273415482918e-07
5.4499999999999997e-05,-0.017172246990676765,7.542513807360994e-07
5.4999999999999995e-05,-0.020501523332682847,9.29776485888249e-07
5.55e-05,-0.0225061483295228,9.992894726405892e-07
5.6e-05,-0.02051183882202956,9.548645447466425e-07
5.65e-05,-0.01848345877851143,8.015669848708801e-07
5.6999999999999996e-05,-0.014485020968755258,5.568756164881927e-07
5.7499999999999995e-05,-0.007993693352997155,2.4868988716486003e-07
5.8e-05,0.0030221260854776943,-8.785119655074504e-08
5.85e-05,0.011454578041206087,-4.1437558099327953e-07
5.9e-05,0.01717065974235288,-6.936533058128014e-07
5.9499999999999996e-05,0.02020455138538102,-8.938414241512616e-07
5.9999999999999995e-05,0.022190358575603142,-9.921147013144774e-07
6.05e-05,0.021187762282682154,-9.772681235681944e-07
6.1e-05,0.01951077239173804,-8.509944817946939e-07
6.149999999999999e-05,0.015822984846087795,-6.27691361290709e-07
6.2e-05,0.009402127341727962,-3.328195445229833e-07
6.25e-05,8.881784197001252e-16,-3.429630018249177e-21
6.3e-05,-0.009402127341727518,3.3281954452298363e-07
6.35e-05,-0.01582298484608735,6.276913612906982e-07
6.4e-05,-0.01951077239173804,8.509944817946903e-07
6.45e-05,-0.0211877622826826,9.77268123568193e-07
6.5e-05,-0.022190358575603142,9.92114701314478e-07
6.549999999999999e-05,-0.020204551385381464,8.93841424151268e-07
6.599999999999999e-05,-0.017170659742352434,6.936533058128116e-07
6.65e-05,-0.01145457804120742,4.143755809932858e-07
6.7e-05,-0.003022126085476362,8.78511965507448e-08
6.75e-05,0.007993693352996711,-2.486898871648534e-07
6.8e-05,0.014485020968754814,-5.568756164881869e-07
6.85e-05,0.01848345877851143,-8.015669848708759e-07
6.9e-05,0.02051183882202956,-9.548645447466427e-07
6.95e-05,0.022506148329522357,-9.992894726405895e-07
7e-05,0.020501523332682403,-9.29776485888254e-07
7.049999999999999e-05,0.017172246990676765,-7.542513807361086e-07
7.099999999999999e-05,0.01280313786323184,-4.927273415482978e-07
7.15e-05,0.005680047025624635,-1.7502305897527587e-07
7.2e-05,-0.005342720623139563,1.6263716519488396e-07
7.25e-05,-0.01312585960754653,4.817536741017157e-07
7.3e-05,-0.016826623622269388,7.459411454241827e-07
7.35e-05,-0.020501523332682847,9.250772068344556e-07
7.4e-05,-0.0225061483295228,9.987369566060172e-07
7.45e-05,-0.02051183882202956,9.585217890173775e-07
7.5e-05,-0.018808987882083184,8.090169943749506e-07
7.549999999999999e-05,-0.01449744018764143,5.672689491267608e-07
7.599999999999999e-05,-0.008016250715967121,2.6084150628990185e-07
7.65e-05,0.0027002318280242577,-7.532680552793489e-08
7.7e-05,0.010460302948288813,-4.029064357136648e-07
7.75e-05,0.01717065974235288,-6.845471059286854e-07
7.8e-05,0.02020455138538102,-8.881364488135424e-07
7.85e-05,0.022190358575603142,-9.904614256966505e-07
7.9e-05,0.021518993519666463,-9.798550523842475e-07
7.95e-05,0.01951077239173804,-8.575266561936541e-07
7.999999999999999e-05,0.015830408142009755,-6.374239897486923e-07
8.049999999999999e-05,0.009735568127561045,-3.4464292317452686e-07
8.099999999999999e-05,8.881784197001252e-16,-1.2566039883362848e-08
8.15e-05,-0.009057074242349916,3.209436098072067e-07
8.2e-05,-0.01582298484608735,6.178596130903322e-07
8.25e-05,-0.01951077239173804,8.443279255020138e-07
8.3e-05,-0.0211877622826826,9.745268727865766e-07
8.35e-05,-0.021848262246063843,9.936113105200086e-07
8.4e-05,-0.020200640588534657,8.994052515663718e-07
8.45e-05,-0.01715669176953316,7.026499697988555e-07
8.499999999999999e-05,-0.011786672685285549,4.2577929156508047e-07
8.549999999999999e-05,-0.002679073931460607,1.0036171485122329e-07
8.599999999999999e-05,0.007649850686930915,-2.3649899702371668e-07
8.65e-05,0.013482666307704338,-5.463943467342683e-07
8.7e-05,0.018467077602219106,-7.939903986478348e-07
8.75e-05,0.02051183882202956,-9.510565162951534e-07
8.8e-05,0.022506148329522357,-9.996841892833e-07
8.85e-05,0.020834912373629777,-9.343289424566146e-07
8.9e-05,0.01748939245682024,-7.624425110114524e-07
8.95e-05,0.013137313339129708,-5.036232016357668e-07
8.999999999999999e-05,0.006647836358921744,-1.8738131458573115e-07
9.049999999999999e-05,-0.005002561948614925,1.5022558912075066e-07
9.099999999999999e-05,-0.0128009747233091,4.7070393216532704e-07
9.15e-05,-0.01650880593886761,7.375131173581745e-07
9.2e-05,-0.020501523332682847,9.202318473658708e-07
9.25e-05,-0.0225061483295228,9.980267284282713e-07
9.3e-05,-0.02051183882202956,9.620276715860873e-07
9.35e-05,-0.01947855515243946,8.163392507171869e-07
9.4e-05,-0.014176291487359105,5.775727034222717e-07
9.449999999999999e-05,-0.007689279239131874,2.7295193551732987e-07
9.499999999999999e-05,0.0026929082365501067,-6.279051952930873e-08
9.549999999999999e-05,0.009781614579824627,-3.913736668371983e-07
9.6e-05,0.01717065974235288,-6.753328081210212e-07
9.65e-05,0.019870569496355017,-8.822912264349514e-07
9.7e-05,0.022190358575603142,-9.886517447379133e-07
9.75e-05,0.021518993519666463,-9.822872507286893e-07
9.8e-05,0.019189393154699808,-8.63923417192837e-07
9.85e-05,0.01617825644304327,-6.470559615694467e-07
9.9e-05,0.010100958886213984,-3.564118787132535e-07
9.949999999999999e-05,0.0006889661110616174,-2.5130095443340325e-08
