time (s),power (mW),amplitude (m) = 1e-06,bundle radius = 0.0033,fiber radius = 0.0001875,# fibers = 220,beam waist = 0.0006535714285714286,cladding radius = 6.25e-05,total power (mW) = 90,sampling rate = 2000000.0,trace length = 0.0001,signal frequency = 108000.0
0.0,-0.09566607979791186,1e-06
5e-07,-0.08941470530414897,9.429905358928645e-07
1e-06,-0.08325794046750445,7.784623015670234e-07
1.5e-06,-0.05217979094182468,5.251746299612957e-07
2e-06,-0.019492151248442724,2.1200710992205473e-07
2.4999999999999998e-06,0.008336966782442445,-1.2533323356430415e-07
3e-06,0.045924527190221553,-4.483832160900321e-07
3.5e-06,0.07806459555401446,-7.203090248879069e-07
4e-06,0.08743939181402638,-9.101059706849956e-07
4.5e-06,0.0967281591055773,-9.961336091431724e-07
4.9999999999999996e-06,0.09515985452481956,-9.685831611286312e-07
5.5e-06,0.0880876051979893,-8.305958991958126e-07
6e-06,0.060561804309807954,-5.97904983057519e-07
6.5e-06,0.02791391242269725,-2.97041581577035e-07
7e-06,0.00015298041133782192,3.769018266993467e-08
7.499999999999999e-06,-0.03662926001181965,3.681245526846774e-07
8e-06,-0.06844559105421766,6.565857557529562e-07
8.5e-06,-0.08755629718157287,8.701837546695255e-07
9e-06,-0.09633909354799641,9.845643345292053e-07
9.499999999999999e-06,-0.09667293449910908,9.86685944207868e-07
9.999999999999999e-06,-0.08736954757366533,8.763066800438638e-07
1.05e-05,-0.06977633847768772,6.660118674342518e-07
1.1e-05,-0.03676291330949688,3.797790955218012e-07
1.15e-05,0.0008887124297096705,5.0244318179769394e-08
1.2e-05,0.028534265141889392,-2.850192624699756e-07
1.2499999999999999e-05,0.060515620002702164,-5.877852522924729e-07
1.3e-05,0.08861232153412324,-8.235325976284273e-07
1.35e-05,0.09326692092371047,-9.653816388332737e-07
1.4e-05,0.09638550983472705,-9.97158900260614e-07
1.45e-05,0.08725484353123036,-9.152411726209174e-07
1.4999999999999999e-05,0.08008522766845694,-7.289686274214123e-07
1.55e-05,0.04843595139451651,-4.595798606214871e-07
1.6e-05,0.007698972971278195,-1.3779029068463877e-07
1.6499999999999998e-05,-0.017665506792894803,1.9970998051440476e-07
1.7e-05,-0.0528781287957667,5.144395337815062e-07
1.75e-05,-0.08214165415424723,7.70513242775788e-07
1.8e-05,-0.0894443184473026,9.387338576538741e-07
1.85e-05,-0.09566607979791186,9.99921044203816e-07
1.8999999999999998e-05,-0.08989213658929351,9.470983049947447e-07
1.95e-05,-0.0854841478787769,7.862884321366196e-07
1.9999999999999998e-05,-0.055141336571679744,5.358267949789973e-07
2.05e-05,-0.0202915202781071,2.2427076094938186e-07
2.1e-05,0.008442152788711965,-1.128563848734812e-07
2.1499999999999997e-05,0.04475877532467187,-4.3711576665093104e-07
2.2e-05,0.07494619809840408,-7.115356772092852e-07
2.2499999999999998e-05,0.08747288657210284,-9.048270524660188e-07
2.3e-05,0.09623795322977102,-9.949510169813001e-07
2.35e-05,0.09379238343176688,-9.71631732914674e-07
2.4e-05,0.08805536813398618,-8.375280400421423e-07
2.45e-05,0.06163801751589837,-6.07930297694606e-07
2.4999999999999998e-05,0.029309856425829395,-3.09016994374948e-07
2.55e-05,-7.770495559533686e-05,2.5130095443337016e-08
2.6e-05,-0.035708763252010556,3.564118787132505e-07
2.65e-05,-0.06809624601933884,6.470559615694442e-07
2.7e-05,-0.08816073114330258,8.639234171928353e-07
2.7499999999999998e-05,-0.09632779715326478,9.82287250728688e-07
2.8e-05,-0.09700607739060985,9.88651744737914e-07
2.8499999999999998e-05,-0.08940704709442038,8.822912264349545e-07
2.9e-05,-0.072857323773448,6.753328081210237e-07
2.95e-05,-0.038508430996580856,3.913736668372046e-07
2.9999999999999997e-05,-0.00030384179511599996,6.279051952931557e-08
3.05e-05,0.027135396065986583,-2.7295193551732325e-07
3.1e-05,0.060460605734087736,-5.77572703422269e-07
3.15e-05,0.08848625040293534,-8.16339250717183e-07
3.2e-05,0.09238171956356034,-9.620276715860854e-07
3.25e-05,0.09600640053816001,-9.980267284282717e-07
3.2999999999999996e-05,0.08737923291039351,-9.202318473658721e-07
3.35e-05,0.07986653450747916,-7.375131173581744e-07
3.4e-05,0.048600854870713306,-4.707039321653331e-07
3.45e-05,0.009827160053200501,-1.5022558912075744e-07
3.5e-05,-0.015827007658099745,1.8738131458572093e-07
3.5499999999999996e-05,-0.05290439528826951,5.036232016357578e-07
3.6e-05,-0.08059047105980177,7.62442511011448e-07
3.65e-05,-0.08801834089469018,9.343289424566121e-07
3.7e-05,-0.09600640053816534,9.996841892833e-07
3.75e-05,-0.09088921063837141,9.510565162951544e-07
3.7999999999999995e-05,-0.08645142180679599,7.939903986478369e-07
3.85e-05,-0.05735921975942304,5.463943467342681e-07
3.9e-05,-0.02245272012580557,2.3649899702372676e-07
3.95e-05,0.007225245116673662,-1.0036171485121293e-07
3.9999999999999996e-05,0.04390164054226986,-4.2577929156507105e-07
4.0499999999999995e-05,0.07475096284603033,-7.026499697988455e-07
4.1e-05,0.08781582126408694,-8.994052515663704e-07
4.15e-05,0.09627260419283701,-9.936113105200082e-07
4.2e-05,0.095280296866731,-9.745268727865773e-07
4.2499999999999996e-05,0.08785825084033938,-8.443279255020174e-07
4.2999999999999995e-05,0.06498050572039915,-6.178596130903375e-07
4.35e-05,0.030578533062465496,-3.2094360980720983e-07
4.4e-05,-7.23925609964482e-05,1.2566039883352439e-08
4.45e-05,-0.03622134826295209,3.4464292317451373e-07
4.4999999999999996e-05,-0.06648096138568071,6.374239897486871e-07
4.5499999999999995e-05,-0.08836930242669006,8.575266561936507e-07
4.6e-05,-0.09637842574823985,9.79855052384247e-07
4.65e-05,-0.09700607739060985,9.904614256966516e-07
4.7e-05,-0.0886922841009472,8.881364488135457e-07
4.7499999999999996e-05,-0.07295137224877202,6.845471059286904e-07
4.8e-05,-0.0398362861032826,4.029064357136646e-07
4.85e-05,-0.0014816658695639973,7.532680552793464e-08
4.9e-05,0.026291729156758592,-2.608415062898953e-07
4.95e-05,0.05884230322971007,-5.672689491267553e-07
4.9999999999999996e-05,0.08778336547937471,-8.090169943749467e-07
5.05e-05,0.09261202076749164,-9.585217890173756e-07
5.1e-05,0.09600640053816001,-9.987369566060174e-07
5.15e-05,0.08768857134709407,-9.250772068344583e-07
5.2e-05,0.07886817752728525,-7.459411454241824e-07
5.2499999999999995e-05,0.050660993822022604,-4.817536741017217e-07
5.3e-05,0.01343371695418405,-1.6263716519488372e-07
5.35e-05,-0.014418813772065775,1.750230589752761e-07
5.4e-05,-0.05243792705520711,4.927273415482918e-07
5.4499999999999997e-05,-0.07922101022327865,7.542513807360994e-07
5.4999999999999995e-05,-0.08773064911785333,9.29776485888249e-07
5.55e-05,-0.09600640053816534,9.992894726405892e-07
5.6e-05,-0.09196877816472337,9.548645447466425e-07
5.65e-05,-0.08789314182035568,8.015669848708801e-07
5.6999999999999996e-05,-0.058127440873898095,5.568756164881927e-07
5.7499999999999995e-05,-0.022826011801994284,2.4868988716486003e-07
5.8e-05,0.004677075333963998,-8.785119655074504e-08
5.85e-05,0.04075908510390036,-4.1437558099327953e-07
5.9e-05,0.07351670218570838,-6.936533058128014e-07
5.9499999999999996e-05,0.08801364510297383,-8.938414241512616e-07
5.9999999999999995e-05,0.09627260419283701,-9.921147013144774e-07
6.05e-05,0.09586714170654709,-9.772681235681944e-07
6.1e-05,0.08718045959383502,-8.509944817946939e-07
6.149999999999999e-05,0.06437857989962481,-6.27691361290709e-07
6.2e-05,0.032785200324248365,-3.328195445229833e-07
6.25e-05,0.0,-3.429630018249177e-21
6.3e-05,-0.03278520032425192,3.3281954452298363e-07
6.35e-05,-0.06437857989962481,6.276913612906982e-07
6.4e-05,-0.08718045959384213,8.509944817946903e-07
6.45e-05,-0.0958671417065542,9.77268123568193e-07
6.5e-05,-0.09627260419284767,9.92114701314478e-07
6.549999999999999e-05,-0.08801364510298271,8.93841424151268e-07
6.599999999999999e-05,-0.07351670218571371,6.936533058128116e-07
6.65e-05,-0.04075908510390036,4.143755809932858e-07
6.7e-05,-0.004677075333969327,8.78511965507448e-08
6.75e-05,0.02282601180198718,-2.486898871648534e-07
6.8e-05,0.05812744087388744,-5.568756164881869e-07
6.85e-05,0.08789314182034857,-8.015669848708759e-07
6.9e-05,0.09196877816471805,-9.548645447466427e-07
6.95e-05,0.09600640053816001,-9.992894726405895e-07
7e-05,0.0877306491178409,-9.29776485888254e-07
7.049999999999999e-05,0.07922101022327155,-7.542513807361086e-07
7.099999999999999e-05,0.05243792705520356,-4.927273415482978e-07
7.15e-05,0.014418813772063999,-1.7502305897527587e-07
7.2e-05,-0.013433716954185826,1.6263716519488396e-07
7.25e-05,-0.05066099382202616,4.817536741017157e-07
7.3e-05,-0.07886817752729236,7.459411454241827e-07
7.35e-05,-0.08768857134710295,9.250772068344556e-07
7.4e-05,-0.09600640053816534,9.987369566060172e-07
7.45e-05,-0.09261202076749697,9.585217890173775e-07
7.5e-05,-0.08778336547938181,8.090169943749506e-07
7.549999999999999e-05,-0.05884230322972073,5.672689491267608e-07
7.599999999999999e-05,-0.026291729156756816,2.6084150628990185e-07
7.65e-05,0.0014816658695639973,-7.532680552793489e-08
7.7e-05,0.0398362861032826,-4.029064357136648e-07
7.75e-05,0.07295137224876846,-6.845471059286854e-07
7.8e-05,0.08869228410093832,-8.881364488135424e-07
7.85e-05,0.09700607739059919,-9.904614256966505e-07
7.9e-05,0.09637842574823274,-9.798550523842475e-07
7.95e-05,0.0883693024266794,-8.575266561936541e-07
7.999999999999999e-05,0.06648096138567716,-6.374239897486923e-07
8.049999999999999e-05,0.03622134826295209,-3.4464292317452686e-07
8.099999999999999e-05,7.239256099822455e-05,-1.2566039883362848e-08
8.15e-05,-0.030578533062465496,3.209436098072067e-07
8.2e-05,-0.0649805057204027,6.178596130903322e-07
8.25e-05,-0.08785825084034471,8.443279255020138e-07
8.3e-05,-0.09528029686673811,9.745268727865766e-07
8.35e-05,-0.09627260419284767,9.936113105200086e-07
8.4e-05,-0.08781582126409226,8.994052515663718e-07
8.45e-05,-0.07475096284603389,7.026499697988555e-07
8.499999999999999e-05,-0.04390164054226986,4.2577929156508047e-07
8.549999999999999e-05,-0.007225245116671886,1.0036171485122329e-07
8.599999999999999e-05,0.022452720125802017,-2.3649899702371668e-07
8.65e-05,0.057359219759415936,-5.463943467342683e-07
8.7e-05,0.08645142180679066,-7.939903986478348e-07
8.75e-05,0.09088921063836075,-9.510565162951534e-07
8.8e-05,0.09600640053816001,-9.996841892833e-07
8.85e-05,0.08801834089468485,-9.343289424566146e-07
8.9e-05,0.08059047105979822,-7.624425110114524e-07
8.95e-05,0.05290439528826596,-5.036232016357668e-07
8.999999999999999e-05,0.01582700765809797,-1.8738131458573115e-07
9.049999999999999e-05,-0.009827160053198725,1.5022558912075066e-07
9.099999999999999e-05,-0.04860085487071508,4.7070393216532704e-07
9.15e-05,-0.07986653450748982,7.375131173581745e-07
9.2e-05,-0.08737923291040595,9.202318473658708e-07
9.25e-05,-0.09600640053816534,9.980267284282713e-07
9.3e-05,-0.09238171956356922,9.620276715860873e-07
9.35e-05,-0.08848625040293889,8.163392507171869e-07
9.4e-05,-0.060460605734098394,5.775727034222717e-07
9.449999999999999e-05,-0.027135396065986583,2.7295193551732987e-07
9.499999999999999e-05,0.00030384179511244724,-6.279051952930873e-08
9.549999999999999e-05,0.038508430996580856,-3.913736668371983e-07
9.6e-05,0.07285732377344445,-6.753328081210212e-07
9.65e-05,0.08940704709440794,-8.822912264349514e-07
9.7e-05,0.09700607739059919,-9.886517447379133e-07
9.75e-05,0.0963277971532559,-9.822872507286893e-07
9.8e-05,0.08816073114329548,-8.63923417192837e-07
9.85e-05,0.06809624601933528,-6.470559615694467e-07
9.9e-05,0.035708763252010556,-3.564118787132535e-07
9.949999999999999e-05,7.770495559711321e-05,-2.5130095443340325e-08
