time (s),power (mW),amplitude (m) = 1e-06,bundle radius = 0.0033,fiber radius = 0.0001875,# fibers = 220,beam waist = 0.0018589285714285715,cladding radius = 6.25e-05,total power (mW) = 90,sampling rate = 2000000.0,trace length = 0.0001,signal frequency = 108000.0
0.0,-0.052308860455225314,1e-06
5e-07,-0.04512520943316645,9.429905358928645e-07
1e-06,-0.04302750393857302,7.784623015670234e-07
1.5e-06,-0.02924528842096663,5.251746299612957e-07
2e-06,-0.012608287553760533,2.1200710992205473e-07
2.4999999999999998e-06,0.005140510847226665,-1.2533323356430415e-07
3e-06,0.022845463294457247,-4.483832160900321e-07
3.5e-06,0.0383880808501047,-7.203090248879069e-07
4e-06,0.045790204157153624,-9.101059706849956e-07
4.5e-06,0.05161167495852226,-9.961336091431724e-07
4.9999999999999996e-06,0.04816742580479705,-9.685831611286312e-07
5.5e-06,0.04426061483437316,-8.305958991958126e-07
6e-06,0.03168212017476435,-5.97904983057519e-07
6.5e-06,0.015166522028886575,-2.97041581577035e-07
7e-06,0.002994284759409993,3.769018266993467e-08
7.499999999999999e-06,-0.020148590560108204,3.681245526846774e-07
8e-06,-0.032712568636702244,6.565857557529562e-07
8.5e-06,-0.042533560317620456,8.701837546695255e-07
9e-06,-0.05033270732545958,9.845643345292053e-07
9.499999999999999e-06,-0.05033270732545958,9.86685944207868e-07
9.999999999999999e-06,-0.04247635347562273,8.763066800438638e-07
1.05e-05,-0.03377642353437871,6.660118674342518e-07
1.1e-05,-0.020196581387397217,3.797790955218012e-07
1.15e-05,-5.302843227994458e-05,5.0244318179769394e-08
1.2e-05,0.014670689405676285,-2.850192624699756e-07
1.2499999999999999e-05,0.031188250661976724,-5.877852522924729e-07
1.3e-05,0.043638903477768665,-8.235325976284273e-07
1.35e-05,0.047345944893582015,-9.653816388332737e-07
1.4e-05,0.05161167495852226,-9.97158900260614e-07
1.45e-05,0.04470512034068541,-9.152411726209174e-07
1.4999999999999999e-05,0.040374403502305256,-7.289686274214123e-07
1.55e-05,0.02272421819466075,-4.595798606214871e-07
1.6e-05,0.006448815521407525,-1.3779029068463877e-07
1.6499999999999998e-05,-0.01223037499710422,1.9970998051440476e-07
1.7e-05,-0.02857952707599587,5.144395337815062e-07
1.75e-05,-0.04283659075652224,7.70513242775788e-07
1.8e-05,-0.045300647088446055,9.387338576538741e-07
1.85e-05,-0.052308860455225314,9.99921044203816e-07
1.8999999999999998e-05,-0.0464391534870483,9.470983049947447e-07
1.95e-05,-0.04328669546994668,7.862884321366196e-07
1.9999999999999998e-05,-0.030629863455253314,5.358267949789973e-07
2.05e-05,-0.013610719034865326,2.2427076094938186e-07
2.1e-05,0.004746312588666868,-1.128563848734812e-07
2.1499999999999997e-05,0.02198173414026705,-4.3711576665093104e-07
2.2e-05,0.03711087467806351,-7.115356772092852e-07
2.2499999999999998e-05,0.04485709893291023,-9.048270524660188e-07
2.3e-05,0.05161167495852226,-9.949510169813001e-07
2.35e-05,0.04804105125737834,-9.71631732914674e-07
2.4e-05,0.0443115942610941,-8.375280400421423e-07
2.45e-05,0.03283686075960901,-6.07930297694606e-07
2.4999999999999998e-05,0.015939368269325627,-3.09016994374948e-07
2.55e-05,0.002225034526848191,2.5130095443337016e-08
2.6e-05,-0.019135982291185627,3.564118787132505e-07
2.65e-05,-0.03203550610825445,6.470559615694442e-07
2.7e-05,-0.042576603853463624,8.639234171928353e-07
2.7499999999999998e-05,-0.05026571666616064,9.82287250728688e-07
2.8e-05,-0.05020234615498609,9.88651744737914e-07
2.8499999999999998e-05,-0.04348626815493262,8.822912264349545e-07
2.9e-05,-0.03439569012474841,6.753328081210237e-07
2.95e-05,-0.020467120794739557,3.913736668372046e-07
2.9999999999999997e-05,0.0003364601289916891,6.279051952931557e-08
3.05e-05,0.015186746059864475,-2.7295193551732325e-07
3.1e-05,0.032794005983852514,-5.77572703422269e-07
3.15e-05,0.0428748501756111,-8.16339250717183e-07
3.2e-05,0.04771392043634215,-9.620276715860854e-07
3.25e-05,0.05230886045522176,-9.980267284282717e-07
3.2999999999999996e-05,0.04449004233047127,-9.202318473658721e-07
3.35e-05,0.0413280369904534,-7.375131173581744e-07
3.4e-05,0.023858051682234205,-4.707039321653331e-07
3.45e-05,0.0068171212187291275,-1.5022558912075744e-07
3.5e-05,-0.008779343202521162,1.8738131458572093e-07
3.5499999999999996e-05,-0.029220816261350535,5.036232016357578e-07
3.6e-05,-0.04189827811276636,7.62442511011448e-07
3.65e-05,-0.045300647088446055,9.343289424566121e-07
3.7e-05,-0.052308860455225314,9.996841892833e-07
3.75e-05,-0.04599450398410987,9.510565162951544e-07
3.7999999999999995e-05,-0.04310342405511669,7.939903986478369e-07
3.85e-05,-0.030077015726604373,5.463943467342681e-07
3.9e-05,-0.01529438912134573,2.3649899702372676e-07
3.95e-05,0.00466696575594483,-1.0036171485121293e-07
3.9999999999999996e-05,0.020858412593165454,-4.2577929156507105e-07
4.0499999999999995e-05,0.036719130447496084,-7.026499697988455e-07
4.1e-05,0.04364846092558494,-8.994052515663704e-07
4.15e-05,0.050909296734728215,-9.936113105200082e-07
4.2e-05,0.04838711548735475,-9.745268727865773e-07
4.2499999999999996e-05,0.043618400489179976,-8.443279255020174e-07
4.2999999999999995e-05,0.03195089911284299,-6.178596130903375e-07
4.35e-05,0.017243061865654497,-3.2094360980720983e-07
4.4e-05,0.002634420205740895,1.2566039883352439e-08
4.45e-05,-0.01858782798105274,3.4464292317451373e-07
4.4999999999999996e-05,-0.03184910640696792,6.374239897486871e-07
4.5499999999999995e-05,-0.043663341147240686,8.575266561936507e-07
4.6e-05,-0.04995415350981958,9.79855052384247e-07
4.65e-05,-0.05055537909919927,9.904614256966516e-07
4.7e-05,-0.043597429588430714,8.881364488135457e-07
4.7499999999999996e-05,-0.03678760356161348,6.845471059286904e-07
4.8e-05,-0.019989921189557336,4.029064357136646e-07
4.85e-05,-0.0008781181526735793,7.532680552793464e-08
4.9e-05,0.015614584755708094,-2.608415062898953e-07
4.95e-05,0.031717176363017074,-5.672689491267553e-07
4.9999999999999996e-05,0.04271065214627079,-8.090169943749467e-07
5.05e-05,0.046434669637354986,-9.585217890173756e-07
5.1e-05,0.05230886045522176,-9.987369566060174e-07
5.15e-05,0.045044066565575136,-9.250772068344583e-07
5.2e-05,0.04126086486991376,-7.459411454241824e-07
5.2499999999999995e-05,0.02590788992031179,-4.817536741017217e-07
5.3e-05,0.00712379941693797,-1.6263716519488372e-07
5.35e-05,-0.008322511540725941,1.750230589752761e-07
5.4e-05,-0.02757361442303896,4.927273415482918e-07
5.4499999999999997e-05,-0.041866087170930655,7.542513807360994e-07
5.4999999999999995e-05,-0.04523765944131597,9.29776485888249e-07
5.55e-05,-0.052308860455225314,9.992894726405892e-07
5.6e-05,-0.0468559383278464,9.548645447466425e-07
5.65e-05,-0.04240930216407435,8.015669848708801e-07
5.6999999999999996e-05,-0.029185717914147702,5.568756164881927e-07
5.7499999999999995e-05,-0.016592496215269037,2.4868988716486003e-07
5.8e-05,0.0027537900335836696,-8.785119655074504e-08
5.85e-05,0.019085040058818947,-4.1437558099327953e-07
5.9e-05,0.03815676262654577,-6.936533058128014e-07
5.9499999999999996e-05,0.043597429588425385,-8.938414241512616e-07
5.9999999999999995e-05,0.05055537909919927,-9.921147013144774e-07
6.05e-05,0.04872203675377662,-9.772681235681944e-07
6.1e-05,0.044142654067126585,-8.509944817946939e-07
6.149999999999999e-05,0.03296409105776554,-6.27691361290709e-07
6.2e-05,0.017632297268299624,-3.328195445229833e-07
6.25e-05,-3.552713678800501e-15,-3.429630018249177e-21
6.3e-05,-0.017632297268304953,3.3281954452298363e-07
6.35e-05,-0.03296409105776732,6.276913612906982e-07
6.4e-05,-0.04414265406713014,8.509944817946903e-07
6.45e-05,-0.048722036753774844,9.77268123568193e-07
6.5e-05,-0.05055537909919927,9.92114701314478e-07
6.549999999999999e-05,-0.043597429588430714,8.93841424151268e-07
6.599999999999999e-05,-0.03815676262654932,6.936533058128116e-07
6.65e-05,-0.019085040058826053,4.143755809932858e-07
6.7e-05,-0.002753790033590775,8.78511965507448e-08
6.75e-05,0.016592496215265484,-2.486898871648534e-07
6.8e-05,0.02918571791414415,-5.568756164881869e-07
6.85e-05,0.042409302164070795,-8.015669848708759e-07
6.9e-05,0.0468559383278464,-9.548645447466427e-07
6.95e-05,0.05230886045522176,-9.992894726405895e-07
7e-05,0.04523765944131242,-9.29776485888254e-07
7.049999999999999e-05,0.04186608717092888,-7.542513807361086e-07
7.099999999999999e-05,0.027573614423033632,-4.927273415482978e-07
7.15e-05,0.008322511540718835,-1.7502305897527587e-07
7.2e-05,-0.0071237994169432994,1.6263716519488396e-07
7.25e-05,-0.02590788992032067,4.817536741017157e-07
7.3e-05,-0.04126086486991554,7.459411454241827e-07
7.35e-05,-0.045044066565580465,9.250772068344556e-07
7.4e-05,-0.052308860455225314,9.987369566060172e-07
7.45e-05,-0.04643466963735676,9.585217890173775e-07
7.5e-05,-0.04271065214627612,8.090169943749506e-07
7.549999999999999e-05,-0.03171717636302063,5.672689491267608e-07
7.599999999999999e-05,-0.015614584755711647,2.6084150628990185e-07
7.65e-05,0.0008781181526682502,-7.532680552793489e-08
7.7e-05,0.019989921189552007,-4.029064357136648e-07
7.75e-05,0.036787603561611704,-6.845471059286854e-07
7.8e-05,0.043597429588425385,-8.881364488135424e-07
7.85e-05,0.05055537909919927,-9.904614256966505e-07
7.9e-05,0.04995415350982135,-9.798550523842475e-07
7.95e-05,0.04366334114723536,-8.575266561936541e-07
7.999999999999999e-05,0.03184910640696259,-6.374239897486923e-07
8.049999999999999e-05,0.018587827981049188,-3.4464292317452686e-07
8.099999999999999e-05,-0.0026344202057444477,-1.2566039883362848e-08
8.15e-05,-0.01724306186565805,3.209436098072067e-07
8.2e-05,-0.03195089911284654,6.178596130903322e-07
8.25e-05,-0.04361840048918708,8.443279255020138e-07
8.3e-05,-0.04838711548735297,9.745268727865766e-07
8.35e-05,-0.050909296734728215,9.936113105200086e-07
8.4e-05,-0.043648460925588495,8.994052515663718e-07
8.45e-05,-0.03671913044749786,7.026499697988555e-07
8.499999999999999e-05,-0.02085841259317256,4.2577929156508047e-07
8.549999999999999e-05,-0.004666965755950159,1.0036171485122329e-07
8.599999999999999e-05,0.015294389121342178,-2.3649899702371668e-07
8.65e-05,0.03007701572660082,-5.463943467342683e-07
8.7e-05,0.04310342405511314,-7.939903986478348e-07
8.75e-05,0.04599450398410987,-9.510565162951534e-07
8.8e-05,0.05230886045522176,-9.996841892833e-07
8.85e-05,0.045300647088440726,-9.343289424566146e-07
8.9e-05,0.041898278112764586,-7.624425110114524e-07
8.95e-05,0.029220816261345206,-5.036232016357668e-07
8.999999999999999e-05,0.008779343202515832,-1.8738131458573115e-07
9.049999999999999e-05,-0.0068171212187344565,1.5022558912075066e-07
9.099999999999999e-05,-0.023858051682243087,4.7070393216532704e-07
9.15e-05,-0.041328036990455175,7.375131173581745e-07
9.2e-05,-0.0444900423304766,9.202318473658708e-07
9.25e-05,-0.052308860455225314,9.980267284282713e-07
9.3e-05,-0.047713920436343926,9.620276715860873e-07
9.35e-05,-0.042874850175614654,8.163392507171869e-07
9.4e-05,-0.03279400598385962,5.775727034222717e-07
9.449999999999999e-05,-0.015186746059866252,2.7295193551732987e-07
9.499999999999999e-05,-0.00033646012899701816,-6.279051952930873e-08
9.549999999999999e-05,0.02046712079473778,-3.913736668371983e-07
9.6e-05,0.03439569012474486,-6.753328081210212e-07
9.65e-05,0.04348626815492729,-8.822912264349514e-07
9.7e-05,0.05020234615498609,-9.886517447379133e-07
9.75e-05,0.05026571666616064,-9.822872507286893e-07
9.8e-05,0.042576603853458295,-8.63923417192837e-07
9.85e-05,0.03203550610825623,-6.470559615694467e-07
9.9e-05,0.01913598229118385,-3.564118787132535e-07
9.949999999999999e-05,-0.00222503452685352,-2.5130095443340325e-08
