time (s),power (mW),amplitude (m) = 1e-06,bundle radius = 0.0033,fiber radius = 0.0001875,# fibers = 220,beam waist = 0.0003892857142857143,cladding radius = 6.25e-05,total power (mW) = 90,sampling rate = 2000000.0,trace length = 0.0001,signal frequency = 108000.0
0.0,-0.39683695503723726,1e-06
5e-07,-0.3722882888445831,9.429905358928645e-07
1e-06,-0.30657293915774275,7.784623015670234e-07
1.5e-06,-0.20596228301044306,5.251746299612957e-07
2e-06,-0.0811230933389453,2.1200710992205473e-07
2.4999999999999998e-06,0.04751873946282359,-1.2533323356430415e-07
3e-06,0.17642503948533061,-4.483832160900321e-07
3.5e-06,0.28246598073425133,-7.203090248879069e-07
4e-06,0.3600882348696963,-9.101059706849956e-07
4.5e-06,0.395244397994702,-9.961336091431724e-07
4.9999999999999996e-06,0.380761248376146,-9.685831611286312e-07
5.5e-06,0.32782315101438897,-8.305958991958126e-07
6e-06,0.23419415979008207,-5.97904983057519e-07
6.5e-06,0.11819038505955959,-2.97041581577035e-07
7e-06,-0.011062877933404991,3.769018266993467e-08
7.499999999999999e-06,-0.1451294790914588,3.681245526846774e-07
8e-06,-0.25822943231747786,6.565857557529562e-07
8.5e-06,-0.34185478806697134,8.701837546695255e-07
9e-06,-0.3885443504864128,9.845643345292053e-07
9.499999999999999e-06,-0.38940075003264596,9.86685944207868e-07
9.999999999999999e-06,-0.34615839035052076,8.763066800438638e-07
1.05e-05,-0.2616209051914389,6.660118674342518e-07
1.1e-05,-0.1494172230153481,3.797790955218012e-07
1.15e-05,-0.01821597244543227,5.0244318179769394e-08
1.2e-05,0.11142128656566541,-2.850192624699756e-07
1.2499999999999999e-05,0.23135322293747507,-5.877852522924729e-07
1.3e-05,0.32563115565931966,-8.235325976284273e-07
1.35e-05,0.37947960396250124,-9.653816388332737e-07
1.4e-05,0.39568996407614776,-9.97158900260614e-07
1.45e-05,0.36237510032973574,-9.152411726209174e-07
1.4999999999999999e-05,0.28465553196413396,-7.289686274214123e-07
1.55e-05,0.18158741436996806,-4.595798606214871e-07
1.6e-05,0.05380508504030246,-1.3779029068463877e-07
1.6499999999999998e-05,-0.07859656688367522,1.9970998051440476e-07
1.7e-05,-0.20191163654512323,5.144395337815062e-07
1.75e-05,-0.3027565937713099,7.70513242775788e-07
1.8e-05,-0.3722882888445831,9.387338576538741e-07
1.85e-05,-0.3963846246781273,9.99921044203816e-07
1.8999999999999998e-05,-0.37361143324386603,9.470983049947447e-07
1.95e-05,-0.3079388222834041,7.862884321366196e-07
1.9999999999999998e-05,-0.20817117054654943,5.358267949789973e-07
2.05e-05,-0.08599095421418568,2.2427076094938186e-07
2.1e-05,0.041760419908161595,-1.128563848734812e-07
2.1499999999999997e-05,0.1729956069421057,-4.3711576665093104e-07
2.2e-05,0.2804571571006562,-7.115356772092852e-07
2.2499999999999998e-05,0.35731505507845185,-9.048270524660188e-07
2.3e-05,0.395244397994702,-9.949510169813001e-07
2.35e-05,0.380761248376146,-9.71631732914674e-07
2.4e-05,0.3281580203006982,-8.375280400421423e-07
2.45e-05,0.2380129076061941,-6.07930297694606e-07
2.4999999999999998e-05,0.12285266874982881,-3.09016994374948e-07
2.55e-05,-0.005817945984400552,2.5130095443337016e-08
2.6e-05,-0.14013014054548734,3.564118787132505e-07
2.65e-05,-0.25297351445397354,6.470559615694442e-07
2.7e-05,-0.3396135527108406,8.639234171928353e-07
2.7499999999999998e-05,-0.3873391586306312,9.82287250728688e-07
2.8e-05,-0.38982910799936477,9.88651744737914e-07
2.8499999999999998e-05,-0.3477772246246609,8.822912264349545e-07
2.9e-05,-0.264118575024213,6.753328081210237e-07
2.95e-05,-0.15570484298705978,3.913736668372046e-07
2.9999999999999997e-05,-0.025026343095465364,6.279051952931557e-08
3.05e-05,0.10572343063967082,-2.7295193551732325e-07
3.1e-05,0.22611401852939395,-5.77572703422269e-07
3.15e-05,0.3221010985992514,-8.16339250717183e-07
3.2e-05,0.37817861516382223,-9.620276715860854e-07
3.25e-05,0.3960310055745637,-9.980267284282717e-07
3.2999999999999996e-05,0.36499755485639795,-9.202318473658721e-07
3.35e-05,0.2885603799647498,-7.375131173581744e-07
3.4e-05,0.18629370134151912,-4.707039321653331e-07
3.45e-05,0.058090453228853534,-1.5022558912075744e-07
3.5e-05,-0.07455481813727971,1.8738131458572093e-07
3.5499999999999996e-05,-0.19999527549412832,5.036232016357578e-07
3.6e-05,-0.30101902349750276,7.62442511011448e-07
3.65e-05,-0.36913896490591824,9.343289424566121e-07
3.7e-05,-0.3963846246781273,9.996841892833e-07
3.75e-05,-0.3757467049284493,9.510565162951544e-07
3.7999999999999995e-05,-0.3095736853884681,7.939903986478369e-07
3.85e-05,-0.21134350683767877,5.463943467342681e-07
3.9e-05,-0.09271362271035244,2.3649899702372676e-07
3.95e-05,0.03762183303796007,-1.0036171485121293e-07
3.9999999999999996e-05,0.16875151822466705,-4.2577929156507105e-07
4.0499999999999995e-05,0.2771710657490658,-7.026499697988455e-07
4.1e-05,0.3538103245114179,-8.994052515663704e-07
4.15e-05,0.39484189073683496,-9.936113105200082e-07
4.2e-05,0.3846344492015561,-9.745268727865773e-07
4.2499999999999996e-05,0.3302834328494697,-8.443279255020174e-07
4.2999999999999995e-05,0.2411579161724866,-6.178596130903375e-07
4.35e-05,0.12531869669537343,-3.2094360980720983e-07
4.4e-05,-0.003228389509235541,1.2566039883352439e-08
4.45e-05,-0.13473899175571447,3.4464292317451373e-07
4.4999999999999996e-05,-0.24884259962546906,6.374239897486871e-07
4.5499999999999995e-05,-0.33650177517746727,8.575266561936507e-07
4.6e-05,-0.3859274426376551,9.79855052384247e-07
4.65e-05,-0.3916696027979043,9.904614256966516e-07
4.7e-05,-0.3491298920820327,8.881364488135457e-07
4.7499999999999996e-05,-0.26933789700994737,6.845471059286904e-07
4.8e-05,-0.1614636046519209,4.029064357136646e-07
4.85e-05,-0.030233306104030078,7.532680552793464e-08
4.9e-05,0.10304743032455477,-2.608415062898953e-07
4.95e-05,0.22144113046590164,-5.672689491267553e-07
4.9999999999999996e-05,0.3202728015429308,-8.090169943749467e-07
5.05e-05,0.3765343815279323,-9.585217890173756e-07
5.1e-05,0.39638462467813795,-9.987369566060174e-07
5.15e-05,0.3660829353290431,-9.250772068344583e-07
5.2e-05,0.2940073474954126,-7.459411454241824e-07
5.2499999999999995e-05,0.19285207244224978,-4.817536741017217e-07
5.3e-05,0.06396138004870977,-1.6263716519488372e-07
5.35e-05,-0.06976356096986436,1.750230589752761e-07
5.4e-05,-0.19740774917963222,4.927273415482918e-07
5.4499999999999997e-05,-0.29748799941487647,7.542513807360994e-07
5.4999999999999995e-05,-0.36866825851593177,9.29776485888249e-07
5.55e-05,-0.3963846246781273,9.992894726405892e-07
5.6e-05,-0.37653438152792873,9.548645447466425e-07
5.65e-05,-0.31449158869981275,8.015669848708801e-07
5.6999999999999996e-05,-0.21473142771747433,5.568756164881927e-07
5.7499999999999995e-05,-0.09880483505698123,2.4868988716486003e-07
5.8e-05,0.03363961166128249,-8.785119655074504e-08
5.85e-05,0.1656036141356232,-4.1437558099327953e-07
5.9e-05,0.273787140551331,-6.936533058128014e-07
5.9499999999999996e-05,0.3511667749430849,-8.938414241512616e-07
5.9999999999999995e-05,0.3925119120663929,-9.921147013144774e-07
6.05e-05,0.38512346822289345,-9.772681235681944e-07
6.1e-05,0.33360130366314067,-8.509944817946939e-07
6.149999999999999e-05,0.2445363436933654,-6.27691361290709e-07
6.2e-05,0.12958093865559306,-3.328195445229833e-07
6.25e-05,3.552713678800501e-15,-3.429630018249177e-21
6.3e-05,-0.1295809386555966,3.3281954452298363e-07
6.35e-05,-0.24453634369337607,6.276913612906982e-07
6.4e-05,-0.3336013036631513,8.509944817946903e-07
6.45e-05,-0.3851234682228828,9.77268123568193e-07
6.5e-05,-0.3925119120663787,9.92114701314478e-07
6.549999999999999e-05,-0.351166774943092,8.93841424151268e-07
6.599999999999999e-05,-0.273787140551331,6.936533058128116e-07
6.65e-05,-0.1656036141356232,4.143755809932858e-07
6.7e-05,-0.03363961166128604,8.78511965507448e-08
6.75e-05,0.09880483505696702,-2.486898871648534e-07
6.8e-05,0.21473142771747433,-5.568756164881869e-07
6.85e-05,0.31449158869981275,-8.015669848708759e-07
6.9e-05,0.3765343815279323,-9.548645447466427e-07
6.95e-05,0.39638462467813795,-9.992894726405895e-07
7e-05,0.36866825851592466,-9.29776485888254e-07
7.049999999999999e-05,0.29748799941487647,-7.542513807361086e-07
7.099999999999999e-05,0.19740774917961446,-4.927273415482978e-07
7.15e-05,0.0697635609698608,-1.7502305897527587e-07
7.2e-05,-0.06396138004871688,1.6263716519488396e-07
7.25e-05,-0.19285207244226044,4.817536741017157e-07
7.3e-05,-0.2940073474954019,7.459411454241827e-07
7.35e-05,-0.36608293532903957,9.250772068344556e-07
7.4e-05,-0.3963846246781273,9.987369566060172e-07
7.45e-05,-0.37653438152792873,9.585217890173775e-07
7.5e-05,-0.320272801542945,8.090169943749506e-07
7.549999999999999e-05,-0.22144113046589808,5.672689491267608e-07
7.599999999999999e-05,-0.10304743032456187,2.6084150628990185e-07
7.65e-05,0.030233306104040736,-7.532680552793489e-08
7.7e-05,0.16146360465192444,-4.029064357136648e-07
7.75e-05,0.2693378970099545,-6.845471059286854e-07
7.8e-05,0.3491298920820256,-8.881364488135424e-07
7.85e-05,0.39166960279792207,-9.904614256966505e-07
7.9e-05,0.3859274426376693,-9.798550523842475e-07
7.95e-05,0.33650177517746016,-8.575266561936541e-07
7.999999999999999e-05,0.24884259962545485,-6.374239897486923e-07
8.049999999999999e-05,0.1347389917557038,-3.4464292317452686e-07
8.099999999999999e-05,0.0032283895092284354,-1.2566039883362848e-08
8.15e-05,-0.1253186966953841,3.209436098072067e-07
8.2e-05,-0.24115791617249016,6.178596130903322e-07
8.25e-05,-0.33028343284948036,8.443279255020138e-07
8.3e-05,-0.384634449201549,9.745268727865766e-07
8.35e-05,-0.39484189073682785,9.936113105200086e-07
8.4e-05,-0.3538103245114179,8.994052515663718e-07
8.45e-05,-0.27717106574906225,7.026499697988555e-07
8.499999999999999e-05,-0.16875151822467416,4.2577929156508047e-07
8.549999999999999e-05,-0.03762183303795297,1.0036171485122329e-07
8.599999999999999e-05,0.09271362271035244,-2.3649899702371668e-07
8.65e-05,0.21134350683766812,-5.463943467342683e-07
8.7e-05,0.30957368538847163,-7.939903986478348e-07
8.75e-05,0.3757467049284493,-9.510565162951534e-07
8.8e-05,0.39638462467813795,-9.996841892833e-07
8.85e-05,0.3691389649059147,-9.343289424566146e-07
8.9e-05,0.3010190234975134,-7.624425110114524e-07
8.95e-05,0.19999527549411766,-5.036232016357668e-07
8.999999999999999e-05,0.0745548181372726,-1.8738131458573115e-07
9.049999999999999e-05,-0.058090453228857086,1.5022558912075066e-07
9.099999999999999e-05,-0.18629370134152268,4.7070393216532704e-07
9.15e-05,-0.28856037996475337,7.375131173581745e-07
9.2e-05,-0.36499755485640506,9.202318473658708e-07
9.25e-05,-0.3960310055745566,9.980267284282713e-07
9.3e-05,-0.3781786151638187,9.620276715860873e-07
9.35e-05,-0.3221010985992656,8.163392507171869e-07
9.4e-05,-0.2261140185293904,5.775727034222717e-07
9.449999999999999e-05,-0.10572343063967082,2.7295193551732987e-07
9.499999999999999e-05,0.025026343095483128,-6.279051952930873e-08
9.549999999999999e-05,0.15570484298705267,-3.913736668371983e-07
9.6e-05,0.264118575024213,-6.753328081210212e-07
9.65e-05,0.3477772246246431,-8.822912264349514e-07
9.7e-05,0.389829107999379,-9.886517447379133e-07
9.75e-05,0.38733915863064183,-9.822872507286893e-07
9.8e-05,0.3396135527108193,-8.63923417192837e-07
9.85e-05,0.2529735144539558,-6.470559615694467e-07
9.9e-05,0.14013014054548023,-3.564118787132535e-07
9.949999999999999e-05,0.005817945984404105,-2.5130095443340325e-08
