time (s),power (mW),amplitude (m) = 1e-06,bundle radius = 0.0033,fiber radius = 0.0001875,# fibers = 220,beam waist = 0.0017239795918367346,cladding radius = 6.25e-05,total power (mW) = 90,sampling rate = 2000000.0,trace length = 0.0001,signal frequency = 108000.0
0.0,-0.0580564643479331,1e-06
5e-07,-0.0575318689955413,9.429905358928645e-07
1e-06,-0.048058006317969415,7.784623015670234e-07
1.5e-06,-0.037208985020905416,5.251746299612957e-07
2e-06,-0.018869251044323576,2.1200710992205473e-07
2.4999999999999998e-06,0.006129106275054141,-1.2533323356430415e-07
3e-06,0.025310826298216682,-4.483832160900321e-07
3.5e-06,0.04225963072425465,-7.203090248879069e-07
4e-06,0.05554586386788252,-9.101059706849956e-07
4.5e-06,0.05800537675383133,-9.961336091431724e-07
4.9999999999999996e-06,0.057090520648392484,-9.685831611286312e-07
5.5e-06,0.04955910018692933,-8.305958991958126e-07
6e-06,0.03912487634776518,-5.97904983057519e-07
6.5e-06,0.01637818070874353,-2.97041581577035e-07
7e-06,-0.0043003091160152,3.769018266993467e-08
7.499999999999999e-06,-0.020389913067125676,3.681245526846774e-07
8e-06,-0.03887343543593502,6.565857557529562e-07
8.5e-06,-0.053586751890023265,8.701837546695255e-07
9e-06,-0.05787459259299865,9.845643345292053e-07
9.499999999999999e-06,-0.05793188920562464,9.86685944207868e-07
9.999999999999999e-06,-0.053161028378992725,8.763066800438638e-07
1.05e-05,-0.0398894302364976,6.660118674342518e-07
1.1e-05,-0.02136075883116817,3.797790955218012e-07
1.15e-05,-0.004575186443405599,5.0244318179769394e-08
1.2e-05,0.015277466944068507,-2.850192624699756e-07
1.2499999999999999e-05,0.03775235393784726,-5.877852522924729e-07
1.3e-05,0.04994635990687257,-8.235325976284273e-07
1.35e-05,0.05688082448779319,-9.653816388332737e-07
1.4e-05,0.057679293199752735,-9.97158900260614e-07
1.45e-05,0.05648491119824506,-9.152411726209174e-07
1.4999999999999999e-05,0.04313407602619357,-7.289686274214123e-07
1.55e-05,0.026310752522407554,-4.595798606214871e-07
1.6e-05,0.007802323121824273,-1.3779029068463877e-07
1.6499999999999998e-05,-0.01734813056804363,1.9970998051440476e-07
1.7e-05,-0.035359602192793105,5.144395337815062e-07
1.75e-05,-0.04793545632438878,7.70513242775788e-07
1.8e-05,-0.05671881098720988,9.387338576538741e-07
1.85e-05,-0.0580564643479331,9.99921044203816e-07
1.8999999999999998e-05,-0.0580594946142341,9.470983049947447e-07
1.95e-05,-0.04757288472943699,7.862884321366196e-07
1.9999999999999998e-05,-0.03781161075426631,5.358267949789973e-07
2.05e-05,-0.016568647275214232,2.2427076094938186e-07
2.1e-05,0.006610272880740453,-1.128563848734812e-07
2.1499999999999997e-05,0.0237462241612576,-4.3711576665093104e-07
2.2e-05,0.042134665917640035,-7.115356772092852e-07
2.2499999999999998e-05,0.054762017967812326,-9.048270524660188e-07
2.3e-05,0.05800537675383133,-9.949510169813001e-07
2.35e-05,0.057541439602387,-9.71631732914674e-07
2.4e-05,0.05006533118592138,-8.375280400421423e-07
2.45e-05,0.04037493130333125,-6.07930297694606e-07
2.4999999999999998e-05,0.01732771205269401,-3.09016994374948e-07
2.55e-05,-0.0027723071101508623,2.5130095443337016e-08
2.6e-05,-0.019923997039700936,3.564118787132505e-07
2.65e-05,-0.039008460913876775,6.470559615694442e-07
2.7e-05,-0.05339845633124973,8.639234171928353e-07
2.7499999999999998e-05,-0.05787459259299865,9.82287250728688e-07
2.8e-05,-0.05750506936683841,9.88651744737914e-07
2.8499999999999998e-05,-0.054346177416713104,8.822912264349545e-07
2.9e-05,-0.03986327631814035,6.753328081210237e-07
2.95e-05,-0.02153196138954705,3.913736668372046e-07
2.9999999999999997e-05,-0.00427101405524688,6.279051952931557e-08
3.05e-05,0.01467513612496596,-2.7295193551732325e-07
3.1e-05,0.035448341939847694,-5.77572703422269e-07
3.15e-05,0.049606507628638496,-8.16339250717183e-07
3.2e-05,0.05583716243884318,-9.620276715860854e-07
3.25e-05,0.057679293199752735,-9.980267284282717e-07
3.2999999999999996e-05,0.055989618667551255,-9.202318473658721e-07
3.35e-05,0.046254940890797513,-7.375131173581744e-07
3.4e-05,0.027539857828902115,-4.707039321653331e-07
3.45e-05,0.011611886430259233,-1.5022558912075744e-07
3.5e-05,-0.014190128515123135,1.8738131458572093e-07
3.5499999999999996e-05,-0.03451436614809289,5.036232016357578e-07
3.6e-05,-0.04828364903826454,7.62442511011448e-07
3.65e-05,-0.05748567238946656,9.343289424566121e-07
3.7e-05,-0.0580564643479331,9.996841892833e-07
3.75e-05,-0.057671867522154585,9.510565162951544e-07
3.7999999999999995e-05,-0.04790945095871635,7.939903986478369e-07
3.85e-05,-0.03666550917223432,5.463943467342681e-07
3.9e-05,-0.017969068295897728,2.3649899702372676e-07
3.95e-05,0.007011671557869192,-1.0036171485121293e-07
3.9999999999999996e-05,0.023968892339361503,-4.2577929156507105e-07
4.0499999999999995e-05,0.0423153184181313,-7.026499697988455e-07
4.1e-05,0.05479370261724803,-8.994052515663704e-07
4.15e-05,0.05715135505919555,-9.936113105200082e-07
4.2e-05,0.05715891119855776,-9.745268727865773e-07
4.2499999999999996e-05,0.050576964326799256,-8.443279255020174e-07
4.2999999999999995e-05,0.039053151833597255,-6.178596130903375e-07
4.35e-05,0.018065508715018552,-3.2094360980720983e-07
4.4e-05,0.000541220796510089,1.2566039883352439e-08
4.45e-05,-0.019688861425738224,3.4464292317451373e-07
4.4999999999999996e-05,-0.03948372808987699,6.374239897486871e-07
4.5499999999999995e-05,-0.05348821235589263,8.575266561936507e-07
4.6e-05,-0.058315423124726706,9.79855052384247e-07
4.65e-05,-0.057428950723515726,9.904614256966516e-07
4.7e-05,-0.05511277615886456,8.881364488135457e-07
4.7499999999999996e-05,-0.04128244618556387,6.845471059286904e-07
4.8e-05,-0.022421064498766796,4.029064357136646e-07
4.85e-05,-0.005597341129591982,7.532680552793464e-08
4.9e-05,0.01585368617550209,-2.608415062898953e-07
4.95e-05,0.036060548713573226,-5.672689491267553e-07
4.9999999999999996e-05,0.05001148252205212,-8.090169943749467e-07
5.05e-05,0.05666980251898224,-9.585217890173756e-07
5.1e-05,0.058056464347931325,-9.987369566060174e-07
5.15e-05,0.0563220656534309,-9.250772068344583e-07
5.2e-05,0.04757998521495033,-7.459411454241824e-07
5.2499999999999995e-05,0.029583692481384816,-4.817536741017217e-07
5.3e-05,0.011040294142944163,-1.6263716519488372e-07
5.35e-05,-0.013381107563333217,1.750230589752761e-07
5.4e-05,-0.031385926357780036,4.927273415482918e-07
5.4499999999999997e-05,-0.0465774772624048,7.542513807360994e-07
5.4999999999999995e-05,-0.05592942222165398,9.29776485888249e-07
5.55e-05,-0.0580564643479331,9.992894726405892e-07
5.6e-05,-0.05763188428297106,9.548645447466425e-07
5.65e-05,-0.04927515628629209,8.015669848708801e-07
5.6999999999999996e-05,-0.03677590245771256,5.568756164881927e-07
5.7499999999999995e-05,-0.017690778508947957,2.4868988716486003e-07
5.8e-05,0.007492756542326617,-8.785119655074504e-08
5.85e-05,0.022204727618662545,-4.1437558099327953e-07
5.9e-05,0.04152406748010051,-6.936533058128014e-07
5.9499999999999996e-05,0.054479421465709166,-8.938414241512616e-07
5.9999999999999995e-05,0.057527609298571036,-9.921147013144774e-07
6.05e-05,0.05760893843638826,-9.772681235681944e-07
6.1e-05,0.051988958642061434,-8.509944817946939e-07
6.149999999999999e-05,0.038402634098469335,-6.27691361290709e-07
6.2e-05,0.018599119677668696,-3.328195445229833e-07
6.25e-05,-3.552713678800501e-15,-3.429630018249177e-21
6.3e-05,-0.018599119677668696,3.3281954452298363e-07
6.35e-05,-0.03840263409847289,6.276913612906982e-07
6.4e-05,-0.051988958642064986,8.509944817946903e-07
6.45e-05,-0.057608938436390034,9.77268123568193e-07
6.5e-05,-0.05752760929857459,9.92114701314478e-07
6.549999999999999e-05,-0.05447942146571272,8.93841424151268e-07
6.599999999999999e-05,-0.04152406748010229,6.936533058128116e-07
6.65e-05,-0.022204727618662545,4.143755809932858e-07
6.7e-05,-0.007492756542333723,8.78511965507448e-08
6.75e-05,0.017690778508947957,-2.486898871648534e-07
6.8e-05,0.03677590245770723,-5.568756164881869e-07
6.85e-05,0.04927515628629031,-8.015669848708759e-07
6.9e-05,0.05763188428296928,-9.548645447466427e-07
6.95e-05,0.058056464347931325,-9.992894726405895e-07
7e-05,0.05592942222164865,-9.29776485888254e-07
7.049999999999999e-05,0.046577477262401246,-7.542513807361086e-07
7.099999999999999e-05,0.031385926357776484,-4.927273415482978e-07
7.15e-05,0.013381107563333217,-1.7502305897527587e-07
7.2e-05,-0.011040294142942386,1.6263716519488396e-07
7.25e-05,-0.029583692481386592,4.817536741017157e-07
7.3e-05,-0.04757998521495388,7.459411454241827e-07
7.35e-05,-0.056322065653432674,9.250772068344556e-07
7.4e-05,-0.0580564643479331,9.987369566060172e-07
7.45e-05,-0.05666980251898224,9.585217890173775e-07
7.5e-05,-0.050011482522059225,8.090169943749506e-07
7.549999999999999e-05,-0.03606054871358033,5.672689491267608e-07
7.599999999999999e-05,-0.015853686175500314,2.6084150628990185e-07
7.65e-05,0.0055973411295831,-7.532680552793489e-08
7.7e-05,0.022421064498766796,-4.029064357136648e-07
7.75e-05,0.041282446185562094,-6.845471059286854e-07
7.8e-05,0.05511277615886101,-8.881364488135424e-07
7.85e-05,0.05742895072351217,-9.904614256966505e-07
7.9e-05,0.05831542312472493,-9.798550523842475e-07
7.95e-05,0.053488212355889075,-8.575266561936541e-07
7.999999999999999e-05,0.039483728089875214,-6.374239897486923e-07
8.049999999999999e-05,0.019688861425738224,-3.4464292317452686e-07
8.099999999999999e-05,-0.0005412207965154181,-1.2566039883362848e-08
8.15e-05,-0.018065508715025658,3.209436098072067e-07
8.2e-05,-0.03905315183359903,6.178596130903322e-07
8.25e-05,-0.050576964326799256,8.443279255020138e-07
8.3e-05,-0.05715891119855954,9.745268727865766e-07
8.35e-05,-0.057151355059199105,9.936113105200086e-07
8.4e-05,-0.05479370261725158,8.994052515663718e-07
8.45e-05,-0.042315318418133074,7.026499697988555e-07
8.499999999999999e-05,-0.023968892339361503,4.2577929156508047e-07
8.549999999999999e-05,-0.007011671557876298,1.0036171485122329e-07
8.599999999999999e-05,0.017969068295894175,-2.3649899702371668e-07
8.65e-05,0.03666550917223077,-5.463943467342683e-07
8.7e-05,0.04790945095871102,-7.939903986478348e-07
8.75e-05,0.05767186752215281,-9.510565162951534e-07
8.8e-05,0.058056464347931325,-9.996841892833e-07
8.85e-05,0.05748567238946656,-9.343289424566146e-07
8.9e-05,0.04828364903825921,-7.624425110114524e-07
8.95e-05,0.03451436614808401,-5.036232016357668e-07
8.999999999999999e-05,0.014190128515117806,-1.8738131458573115e-07
9.049999999999999e-05,-0.01161188643026101,1.5022558912075066e-07
9.099999999999999e-05,-0.027539857828898562,4.7070393216532704e-07
9.15e-05,-0.04625494089080284,7.375131173581745e-07
9.2e-05,-0.05598961866755481,9.202318473658708e-07
9.25e-05,-0.057679293199752735,9.980267284282713e-07
9.3e-05,-0.0558371624388414,9.620276715860873e-07
9.35e-05,-0.04960650762863672,8.163392507171869e-07
9.4e-05,-0.0354483419398548,5.775727034222717e-07
9.449999999999999e-05,-0.01467513612496596,2.7295193551732987e-07
9.499999999999999e-05,0.004271014055237998,-6.279051952930873e-08
9.549999999999999e-05,0.021531961389543497,-3.913736668371983e-07
9.6e-05,0.039863276318138574,-6.753328081210212e-07
9.65e-05,0.05434617741671133,-8.822912264349514e-07
9.7e-05,0.05750506936683486,-9.886517447379133e-07
9.75e-05,0.057874592592996876,-9.822872507286893e-07
9.8e-05,0.05339845633124618,-8.63923417192837e-07
9.85e-05,0.039008460913875,-6.470559615694467e-07
9.9e-05,0.019923997039700936,-3.564118787132535e-07
9.949999999999999e-05,0.002772307110145533,-2.5130095443340325e-08
