time (s),power (mW),amplitude (m) = 1e-06,bundle radius = 0.0033,fiber radius = 0.0001875,# fibers = 218,beam waist = 0.0008688775510204082,cladding radius = 6.25e-05,total power (mW) = 90,sampling rate = 2000000.0,trace length = 0.0001,signal frequency = 108000.0
0.0,-0.06629857914259851,1e-06
5e-07,-0.06370170537153008,9.429905358928645e-07
1e-06,-0.05232984645675387,7.784623015670234e-07
1.5e-06,-0.035371294819510624,5.251746299612957e-07
2e-06,-0.013250866654812121,2.1200710992205473e-07
2.4999999999999998e-06,0.008927735382783908,-1.2533323356430415e-07
3e-06,0.033283422938982454,-4.483832160900321e-07
3.5e-06,0.04483589503561891,-7.203090248879069e-07
4e-06,0.06101804515657161,-9.101059706849956e-07
4.5e-06,0.06624127346688269,-9.961336091431724e-07
4.9999999999999996e-06,0.06584817874326987,-9.685831611286312e-07
5.5e-06,0.05448757100475721,-8.305958991958126e-07
6e-06,0.03951774728183377,-5.97904983057519e-07
6.5e-06,0.019974710744727453,-2.97041581577035e-07
7e-06,-0.003013369380288289,3.769018266993467e-08
7.499999999999999e-06,-0.023954524090845197,3.681245526846774e-07
8e-06,-0.0417647208357117,6.565857557529562e-07
8.5e-06,-0.056882609271032614,8.701837546695255e-07
9e-06,-0.06592407321673477,9.845643345292053e-07
9.499999999999999e-06,-0.06624495653926932,9.86685944207868e-07
9.999999999999999e-06,-0.0576244366514338,8.763066800438638e-07
1.05e-05,-0.04213294623112418,6.660118674342518e-07
1.1e-05,-0.02434195695146979,3.797790955218012e-07
1.15e-05,-0.0037514280221069285,5.0244318179769394e-08
1.2e-05,0.019442426524665102,-2.850192624699756e-07
1.2499999999999999e-05,0.03909323971520262,-5.877852522924729e-07
1.3e-05,0.054028431104300445,-8.235325976284273e-07
1.35e-05,0.06514793757348425,-9.653816388332737e-07
1.4e-05,0.06624127346688269,-9.97158900260614e-07
1.45e-05,0.061350938955090584,-9.152411726209174e-07
1.4999999999999999e-05,0.04654903887134587,-7.289686274214123e-07
1.55e-05,0.03332957995357155,-4.595798606214871e-07
1.6e-05,0.009676942193280524,-1.3779029068463877e-07
1.6499999999999998e-05,-0.01255543620197308,1.9970998051440476e-07
1.7e-05,-0.034599949179881406,5.144395337815062e-07
1.75e-05,-0.05149015791543743,7.70513242775788e-07
1.8e-05,-0.06402162021827706,9.387338576538741e-07
1.85e-05,-0.06629857914259851,9.99921044203816e-07
1.8999999999999998e-05,-0.0643968229752847,9.470983049947447e-07
1.95e-05,-0.052689610161838374,7.862884321366196e-07
1.9999999999999998e-05,-0.03653503562413363,5.358267949789973e-07
2.05e-05,-0.014110535466581808,2.2427076094938186e-07
2.1e-05,0.009564864234807402,-1.128563848734812e-07
2.1499999999999997e-05,0.03180583718369423,-4.3711576665093104e-07
2.2e-05,0.04377184517725219,-7.115356772092852e-07
2.2499999999999998e-05,0.059801351222183996,-9.048270524660188e-07
2.3e-05,0.06624127346688269,-9.949510169813001e-07
2.35e-05,0.06592407321673477,-9.71631732914674e-07
2.4e-05,0.05448757100475721,-8.375280400421423e-07
2.45e-05,0.04010713824960099,-6.07930297694606e-07
2.4999999999999998e-05,0.02137563816730559,-3.09016994374948e-07
2.55e-05,-0.00296361615139773,2.5130095443337016e-08
2.6e-05,-0.02386111219563336,3.564118787132505e-07
2.65e-05,-0.0417647208357117,6.470559615694442e-07
2.7e-05,-0.05634293157225034,8.639234171928353e-07
2.7499999999999998e-05,-0.06592407321673477,9.82287250728688e-07
2.8e-05,-0.06624495653926932,9.88651744737914e-07
2.8499999999999998e-05,-0.05827790726040405,8.822912264349545e-07
2.9e-05,-0.04242191713598409,6.753328081210237e-07
2.95e-05,-0.02630070549943042,3.913736668372046e-07
2.9999999999999997e-05,-0.00485925182456981,6.279051952931557e-08
3.05e-05,0.018363452812677927,-2.7295193551732325e-07
3.1e-05,0.038321413063559184,-5.77572703422269e-07
3.15e-05,0.05322564577214628,-8.16339250717183e-07
3.2e-05,0.06514793757348425,-9.620276715860854e-07
3.25e-05,0.06624127346688269,-9.980267284282717e-07
3.2999999999999996e-05,0.06167615042068242,-9.202318473658721e-07
3.35e-05,0.047993094142311676,-7.375131173581744e-07
3.4e-05,0.033809442303545545,-4.707039321653331e-07
3.45e-05,0.01024385429276009,-1.5022558912075744e-07
3.5e-05,-0.011804775618669439,1.8738131458572093e-07
3.5499999999999996e-05,-0.03487822634519766,5.036232016357578e-07
3.6e-05,-0.05034328939084176,7.62442511011448e-07
3.65e-05,-0.06324901489395351,9.343289424566121e-07
3.7e-05,-0.06629857914259851,9.996841892833e-07
3.75e-05,-0.0643968229752847,9.510565162951544e-07
3.7999999999999995e-05,-0.052781950121433496,7.939903986478369e-07
3.85e-05,-0.03653503562413363,5.463943467342681e-07
3.9e-05,-0.015277230390283947,2.3649899702372676e-07
3.95e-05,0.008481601154727514,-1.0036171485121293e-07
3.9999999999999996e-05,0.03009360770059999,-4.2577929156507105e-07
4.0499999999999995e-05,0.04294808845373321,-7.026499697988455e-07
4.1e-05,0.059082968526501745,-8.994052515663704e-07
4.15e-05,0.06624127346688269,-9.936113105200082e-07
4.2e-05,0.06592407321673477,-9.745268727865773e-07
4.2499999999999996e-05,0.05491286164419673,-8.443279255020174e-07
4.2999999999999995e-05,0.04010713824960099,-6.178596130903375e-07
4.35e-05,0.022155030486170624,-3.2094360980720983e-07
4.4e-05,-0.000778620151868914,1.2566039883352439e-08
4.45e-05,-0.022832154363657153,3.4464292317451373e-07
4.4999999999999996e-05,-0.04204390245121736,6.374239897486871e-07
4.5499999999999995e-05,-0.05666695183092507,8.575266561936507e-07
4.6e-05,-0.06592407321673477,9.79855052384247e-07
4.65e-05,-0.06587149327387287,9.904614256966516e-07
4.7e-05,-0.05794855454396863,8.881364488135457e-07
4.7499999999999996e-05,-0.04283187094491936,6.845471059286904e-07
4.8e-05,-0.027048332277864517,4.029064357136646e-07
4.85e-05,-0.005308333038299473,7.532680552793464e-08
4.9e-05,0.01860286880280171,-2.608415062898953e-07
4.95e-05,0.03754873887240606,-5.672689491267553e-07
4.9999999999999996e-05,0.05381024732435691,-8.090169943749467e-07
5.05e-05,0.0648083353368678,-9.585217890173756e-07
5.1e-05,0.06592140067356755,-9.987369566060174e-07
5.15e-05,0.06167615042068242,-9.250772068344583e-07
5.2e-05,0.04879132156019672,-7.459411454241824e-07
5.2499999999999995e-05,0.034545820197660504,-4.817536741017217e-07
5.3e-05,0.010710673769015244,-1.6263716519488372e-07
5.35e-05,-0.01102698883446429,1.750230589752761e-07
5.4e-05,-0.03487822634519766,4.927273415482918e-07
5.4499999999999997e-05,-0.04995430282282953,7.542513807360994e-07
5.4999999999999995e-05,-0.06284306291970942,9.29776485888249e-07
5.55e-05,-0.06629857914259851,9.992894726405892e-07
5.6e-05,-0.0643968229752847,9.548645447466425e-07
5.65e-05,-0.05316014408095171,8.015669848708801e-07
5.6999999999999996e-05,-0.03712516257221221,5.568756164881927e-07
5.7499999999999995e-05,-0.016346591990563653,2.4868988716486003e-07
5.8e-05,0.007265053505374652,-8.785119655074504e-08
5.85e-05,0.028975377649107514,-4.1437558099327953e-07
5.9e-05,0.042925543113149445,-6.936533058128014e-07
5.9499999999999996e-05,0.058350369920880496,-8.938414241512616e-07
5.9999999999999995e-05,0.06624127346688269,-9.921147013144774e-07
6.05e-05,0.06592407321673477,-9.772681235681944e-07
6.1e-05,0.055613893630781064,-8.509944817946939e-07
6.149999999999999e-05,0.04089947138715111,-6.27691361290709e-07
6.2e-05,0.022637975565587,-3.328195445229833e-07
6.25e-05,-1.7763568394002505e-15,-3.429630018249177e-21
6.3e-05,-0.022637975565588775,3.3281954452298363e-07
6.35e-05,-0.04089947138715022,6.276913612906982e-07
6.4e-05,-0.0556138936307784,8.509944817946903e-07
6.45e-05,-0.06592407321673477,9.77268123568193e-07
6.5e-05,-0.06624127346688358,9.92114701314478e-07
6.549999999999999e-05,-0.05835036992087961,8.93841424151268e-07
6.599999999999999e-05,-0.042925543113149445,6.936533058128116e-07
6.65e-05,-0.02897537764910929,4.143755809932858e-07
6.7e-05,-0.0072650535053755405,8.78511965507448e-08
6.75e-05,0.016346591990563653,-2.486898871648534e-07
6.8e-05,0.03712516257221221,-5.568756164881869e-07
6.85e-05,0.0531601440809526,-8.015669848708759e-07
6.9e-05,0.06439682297528382,-9.548645447466427e-07
6.95e-05,0.06629857914259851,-9.992894726405895e-07
7e-05,0.0628430629197112,-9.29776485888254e-07
7.049999999999999e-05,0.04995430282283042,-7.542513807361086e-07
7.099999999999999e-05,0.03487822634519677,-4.927273415482978e-07
7.15e-05,0.011026988834462514,-1.7502305897527587e-07
7.2e-05,-0.010710673769015244,1.6263716519488396e-07
7.25e-05,-0.034545820197660504,4.817536741017157e-07
7.3e-05,-0.048791321560194945,7.459411454241827e-07
7.35e-05,-0.06167615042068153,9.250772068344556e-07
7.4e-05,-0.06592140067356755,9.987369566060172e-07
7.45e-05,-0.0648083353368678,9.585217890173775e-07
7.5e-05,-0.05381024732435513,8.090169943749506e-07
7.549999999999999e-05,-0.03754873887240606,5.672689491267608e-07
7.599999999999999e-05,-0.01860286880280171,2.6084150628990185e-07
7.65e-05,0.005308333038297697,-7.532680552793489e-08
7.7e-05,0.027048332277861853,-4.029064357136648e-07
7.75e-05,0.04283187094491936,-6.845471059286854e-07
7.8e-05,0.05794855454396952,-8.881364488135424e-07
7.85e-05,0.06587149327387198,-9.904614256966505e-07
7.9e-05,0.06592407321673477,-9.798550523842475e-07
7.95e-05,0.056666951830928625,-8.575266561936541e-07
7.999999999999999e-05,0.04204390245121914,-6.374239897486923e-07
8.049999999999999e-05,0.02283215436365449,-3.4464292317452686e-07
8.099999999999999e-05,0.0007786201518662494,-1.2566039883362848e-08
8.15e-05,-0.0221550304861724,3.209436098072067e-07
8.2e-05,-0.04010713824960099,6.178596130903322e-07
8.25e-05,-0.054912861644194066,8.443279255020138e-07
8.3e-05,-0.06592407321673477,9.745268727865766e-07
8.35e-05,-0.06624127346688358,9.936113105200086e-07
8.4e-05,-0.059082968526501745,8.994052515663718e-07
8.45e-05,-0.04294808845373321,7.026499697988555e-07
8.499999999999999e-05,-0.03009360770059999,4.2577929156508047e-07
8.549999999999999e-05,-0.008481601154728402,1.0036171485122329e-07
8.599999999999999e-05,0.015277230390283947,-2.3649899702371668e-07
8.65e-05,0.03653503562413363,-5.463943467342683e-07
8.7e-05,0.052781950121434384,-7.939903986478348e-07
8.75e-05,0.06439682297528382,-9.510565162951534e-07
8.8e-05,0.06629857914259851,-9.996841892833e-07
8.85e-05,0.06324901489395351,-9.343289424566146e-07
8.9e-05,0.05034328939084354,-7.624425110114524e-07
8.95e-05,0.03487822634519677,-5.036232016357668e-07
8.999999999999999e-05,0.01180477561866855,-1.8738131458573115e-07
9.049999999999999e-05,-0.010243854292760979,1.5022558912075066e-07
9.099999999999999e-05,-0.03380944230354643,4.7070393216532704e-07
9.15e-05,-0.04799309414230901,7.375131173581745e-07
9.2e-05,-0.06167615042068153,9.202318473658708e-07
9.25e-05,-0.06624127346688358,9.980267284282713e-07
9.3e-05,-0.06514793757348425,9.620276715860873e-07
9.35e-05,-0.0532256457721445,8.163392507171869e-07
9.4e-05,-0.038321413063558296,5.775727034222717e-07
9.449999999999999e-05,-0.018363452812678815,2.7295193551732987e-07
9.499999999999999e-05,0.004859251824567146,-6.279051952930873e-08
9.549999999999999e-05,0.026300705499427757,-3.913736668371983e-07
9.6e-05,0.04242191713598409,-6.753328081210212e-07
9.65e-05,0.05827790726040494,-8.822912264349514e-07
9.7e-05,0.06624495653926932,-9.886517447379133e-07
9.75e-05,0.06592407321673477,-9.822872507286893e-07
9.8e-05,0.05634293157225301,-8.63923417192837e-07
9.85e-05,0.0417647208357117,-6.470559615694467e-07
9.9e-05,0.023861112195631584,-3.564118787132535e-07
9.949999999999999e-05,0.0029636161513950654,-2.5130095443340325e-08
