time (s),power (mW),amplitude (m) = 1e-06,bundle radius = 0.0033,fiber radius = 0.0001875,# fibers = 220,beam waist = 0.0033040816326530614,cladding radius = 6.25e-05,total power (mW) = 90,sampling rate = 2000000.0,trace length = 0.0001,signal frequency = 108000.0
0.0,-0.04724024981665309,1e-06
5e-07,-0.041561213884097725,9.429905358928645e-07
1e-06,-0.033323535463171794,7.784623015670234e-07
1.5e-06,-0.025268492507198204,5.251746299612957e-07
2e-06,-0.01198090737385371,2.1200710992205473e-07
2.4999999999999998e-06,0.008524396459163697,-1.2533323356430415e-07
3e-06,0.024283042191351356,-4.483832160900321e-07
3.5e-06,0.03331172366715052,-7.203090248879069e-07
4e-06,0.041812285237389446,-9.101059706849956e-07
4.5e-06,0.04724024981665309,-9.961336091431724e-07
4.9999999999999996e-06,0.04493511052836752,-9.685831611286312e-07
5.5e-06,0.03584535694454516,-8.305958991958126e-07
6e-06,0.026089646617318607,-5.97904983057519e-07
6.5e-06,0.012847359551393822,-2.97041581577035e-07
7e-06,-0.003226821973202121,3.769018266993467e-08
7.499999999999999e-06,-0.017535372542218042,3.681245526846774e-07
8e-06,-0.030471723259879013,6.565857557529562e-07
8.5e-06,-0.03727558530947661,8.701837546695255e-07
9e-06,-0.04472468279138653,9.845643345292053e-07
9.499999999999999e-06,-0.04481240013069332,9.86685944207868e-07
9.999999999999999e-06,-0.038901422279405296,8.763066800438638e-07
1.05e-05,-0.028937809070866294,6.660118674342518e-07
1.1e-05,-0.019515785868435387,3.797790955218012e-07
1.15e-05,-0.0037189552761418554,5.0244318179769394e-08
1.2e-05,0.010672048352954988,-2.850192624699756e-07
1.2499999999999999e-05,0.026800045377264325,-5.877852522924729e-07
1.3e-05,0.03534525056275406,-8.235325976284273e-07
1.35e-05,0.04457214004751009,-9.653816388332737e-07
1.4e-05,0.04724024981665309,-9.97158900260614e-07
1.45e-05,0.04151630847275278,-9.152411726209174e-07
1.4999999999999999e-05,0.03211277314385619,-7.289686274214123e-07
1.55e-05,0.025175554593458216,-4.595798606214871e-07
1.6e-05,0.008294774599081123,-1.3779029068463877e-07
1.6499999999999998e-05,-0.011262657052592218,1.9970998051440476e-07
1.7e-05,-0.02481761325400811,5.144395337815062e-07
1.75e-05,-0.03337158851292443,7.70513242775788e-07
1.8e-05,-0.04069822061439865,9.387338576538741e-07
1.85e-05,-0.04724024981665309,9.99921044203816e-07
1.8999999999999998e-05,-0.04249614713706151,9.470983049947447e-07
1.95e-05,-0.03153507240140563,7.862884321366196e-07
1.9999999999999998e-05,-0.024751323822233218,5.358267949789973e-07
2.05e-05,-0.013077548706446507,2.2427076094938186e-07
2.1e-05,0.005823952801375043,-1.128563848734812e-07
2.1499999999999997e-05,0.02336811603399802,-4.3711576665093104e-07
2.2e-05,0.03311829580465897,-7.115356772092852e-07
2.2499999999999998e-05,0.041254531381481385,-9.048270524660188e-07
2.3e-05,0.047312707255773745,-9.949510169813001e-07
2.35e-05,0.04532919887641107,-9.71631732914674e-07
2.4e-05,0.03575605424622985,-8.375280400421423e-07
2.45e-05,0.026191784752152003,-6.07930297694606e-07
2.4999999999999998e-05,0.013472958249128197,-3.09016994374948e-07
2.55e-05,-0.00389589923481104,2.5130095443337016e-08
2.6e-05,-0.01565407031703714,3.564118787132505e-07
2.65e-05,-0.030436756906487616,6.470559615694442e-07
2.7e-05,-0.03700820691065765,8.639234171928353e-07
2.7499999999999998e-05,-0.04438813323726265,9.82287250728688e-07
2.8e-05,-0.045203621090069035,9.88651744737914e-07
2.8499999999999998e-05,-0.038239876798670025,8.822912264349545e-07
2.9e-05,-0.03128636395484996,6.753328081210237e-07
2.95e-05,-0.019852035069126472,3.913736668372046e-07
2.9999999999999997e-05,-0.003202642329213745,6.279051952931557e-08
3.05e-05,0.012516267210195053,-2.7295193551732325e-07
3.1e-05,0.026340394324753547,-5.77572703422269e-07
3.15e-05,0.03560576433969409,-8.16339250717183e-07
3.2e-05,0.0447522502888571,-9.620276715860854e-07
3.25e-05,0.04724024981665309,-9.980267284282717e-07
3.2999999999999996e-05,0.04040649847757827,-9.202318473658721e-07
3.35e-05,0.03274420461676719,-7.375131173581744e-07
3.4e-05,0.024969636158884256,-4.707039321653331e-07
3.45e-05,0.009380691776774697,-1.5022558912075744e-07
3.5e-05,-0.01069389587757641,1.8738131458572093e-07
3.5499999999999996e-05,-0.025105122179571282,5.036232016357578e-07
3.6e-05,-0.03441869980901302,7.62442511011448e-07
3.65e-05,-0.04080488009697447,9.343289424566121e-07
3.7e-05,-0.04724024981665309,9.996841892833e-07
3.75e-05,-0.0440234186322499,9.510565162951544e-07
3.7999999999999995e-05,-0.0328014631768454,7.939903986478369e-07
3.85e-05,-0.025209767873954902,5.463943467342681e-07
3.9e-05,-0.012684047875278992,2.3649899702372676e-07
3.95e-05,0.006149732795137197,-1.0036171485121293e-07
3.9999999999999996e-05,0.02220332563157079,-4.2577929156507105e-07
4.0499999999999995e-05,0.034338309691950286,-7.026499697988455e-07
4.1e-05,0.041294976654489446,-8.994052515663704e-07
4.15e-05,0.047312707255773745,-9.936113105200082e-07
4.2e-05,0.04411420597240756,-9.745268727865773e-07
4.2499999999999996e-05,0.03528501917150528,-8.443279255020174e-07
4.2999999999999995e-05,0.02621027537935916,-6.178596130903375e-07
4.35e-05,0.014183247641543772,-3.2094360980720983e-07
4.4e-05,-0.0013527867181384323,1.2566039883352439e-08
4.45e-05,-0.014951286417671739,3.4464292317451373e-07
4.4999999999999996e-05,-0.027918063893773493,6.374239897486871e-07
4.5499999999999995e-05,-0.037037351803084206,8.575266561936507e-07
4.6e-05,-0.04438813323726265,9.79855052384247e-07
4.65e-05,-0.04558704502048805,9.904614256966516e-07
4.7e-05,-0.038672769813798524,8.881364488135457e-07
4.7499999999999996e-05,-0.03304198216761556,6.845471059286904e-07
4.8e-05,-0.019651781291818438,4.029064357136646e-07
4.85e-05,-0.003971555241768954,7.532680552793464e-08
4.9e-05,0.011847306741355368,-2.608415062898953e-07
4.95e-05,0.025399502338768087,-5.672689491267553e-07
4.9999999999999996e-05,0.03436334687246223,-8.090169943749467e-07
5.05e-05,0.04520548395466051,-9.585217890173756e-07
5.1e-05,0.04724024981665309,-9.987369566060174e-07
5.15e-05,0.04047779847039301,-9.250772068344583e-07
5.2e-05,0.033363354499016395,-7.459411454241824e-07
5.2499999999999995e-05,0.023891247733118348,-4.817536741017217e-07
5.3e-05,0.00944013428986068,-1.6263716519488372e-07
5.35e-05,-0.010373845505386114,1.750230589752761e-07
5.4e-05,-0.023950541109032386,4.927273415482918e-07
5.4499999999999997e-05,-0.03372677647908873,7.542513807360994e-07
5.4999999999999995e-05,-0.040477798470391235,9.29776485888249e-07
5.55e-05,-0.04724024981665309,9.992894726405892e-07
5.6e-05,-0.04411448235518911,9.548645447466425e-07
5.65e-05,-0.03221504811430442,8.015669848708801e-07
5.6999999999999996e-05,-0.02465383286333278,5.568756164881927e-07
5.7499999999999995e-05,-0.011660625740454122,2.4868988716486003e-07
5.8e-05,0.004323411659742149,-8.785119655074504e-08
5.85e-05,0.022550149933657337,-4.1437558099327953e-07
5.9e-05,0.03317189748233318,-6.936533058128014e-07
5.9499999999999996e-05,0.039468553062828704,-8.938414241512616e-07
5.9999999999999995e-05,0.04641150563862162,-9.921147013144774e-07
6.05e-05,0.04451248258663831,-9.772681235681944e-07
6.1e-05,0.03623967448203125,-8.509944817946939e-07
6.149999999999999e-05,0.025422794034179574,-6.27691361290709e-07
6.2e-05,0.014931821169991366,-3.328195445229833e-07
6.25e-05,0.0,-3.429630018249177e-21
6.3e-05,-0.014931821169991366,3.3281954452298363e-07
6.35e-05,-0.025422794034177798,6.276913612906982e-07
6.4e-05,-0.03623967448202592,8.509944817946903e-07
6.45e-05,-0.04451248258663654,9.77268123568193e-07
6.5e-05,-0.04641150563861984,9.92114701314478e-07
6.549999999999999e-05,-0.03946855306282515,8.93841424151268e-07
6.599999999999999e-05,-0.033171897482334955,6.936533058128116e-07
6.65e-05,-0.02255014993365201,4.143755809932858e-07
6.7e-05,-0.004323411659738596,8.78511965507448e-08
6.75e-05,0.011660625740454122,-2.486898871648534e-07
6.8e-05,0.02465383286333811,-5.568756164881869e-07
6.85e-05,0.03221504811430442,-8.015669848708759e-07
6.9e-05,0.044114482355187334,-9.548645447466427e-07
6.95e-05,0.04724024981665309,-9.992894726405895e-07
7e-05,0.04047779847039301,-9.29776485888254e-07
7.049999999999999e-05,0.03372677647908695,-7.542513807361086e-07
7.099999999999999e-05,0.023950541109034162,-4.927273415482978e-07
7.15e-05,0.010373845505386114,-1.7502305897527587e-07
7.2e-05,-0.009440134289858904,1.6263716519488396e-07
7.25e-05,-0.023891247733116572,4.817536741017157e-07
7.3e-05,-0.033363354499016395,7.459411454241827e-07
7.35e-05,-0.040477798470391235,9.250772068344556e-07
7.4e-05,-0.04724024981665309,9.987369566060172e-07
7.45e-05,-0.045205483954656955,9.585217890173775e-07
7.5e-05,-0.03436334687246223,8.090169943749506e-07
7.549999999999999e-05,-0.02539950233876631,5.672689491267608e-07
7.599999999999999e-05,-0.011847306741353592,2.6084150628990185e-07
7.65e-05,0.00397155524177073,-7.532680552793489e-08
7.7e-05,0.019651781291818438,-4.029064357136648e-07
7.75e-05,0.03304198216761378,-6.845471059286854e-07
7.8e-05,0.03867276981380385,-8.881364488135424e-07
7.85e-05,0.045587045020489825,-9.904614256966505e-07
7.9e-05,0.04438813323726443,-9.798550523842475e-07
7.95e-05,0.037037351803089535,-8.575266561936541e-07
7.999999999999999e-05,0.027918063893777045,-6.374239897486923e-07
8.049999999999999e-05,0.014951286417669962,-3.4464292317452686e-07
8.099999999999999e-05,0.0013527867181348796,-1.2566039883362848e-08
8.15e-05,-0.014183247641545549,3.209436098072067e-07
8.2e-05,-0.02621027537935916,6.178596130903322e-07
8.25e-05,-0.03528501917150173,8.443279255020138e-07
8.3e-05,-0.044114205972405784,9.745268727865766e-07
8.35e-05,-0.047312707255773745,9.936113105200086e-07
8.4e-05,-0.04129497665448412,8.994052515663718e-07
8.45e-05,-0.034338309691950286,7.026499697988555e-07
8.499999999999999e-05,-0.022203325631563686,4.2577929156508047e-07
8.549999999999999e-05,-0.006149732795131868,1.0036171485122329e-07
8.599999999999999e-05,0.012684047875282545,-2.3649899702371668e-07
8.65e-05,0.02520976787396023,-5.463943467342683e-07
8.7e-05,0.032801463176843626,-7.939903986478348e-07
8.75e-05,0.04402341863225345,-9.510565162951534e-07
8.8e-05,0.04724024981665309,-9.996841892833e-07
8.85e-05,0.040804880096978025,-9.343289424566146e-07
8.9e-05,0.0344186998090148,-7.624425110114524e-07
8.95e-05,0.025105122179574835,-5.036232016357668e-07
8.999999999999999e-05,0.01069389587757641,-1.8738131458573115e-07
9.049999999999999e-05,-0.009380691776776473,1.5022558912075066e-07
9.099999999999999e-05,-0.024969636158880704,4.7070393216532704e-07
9.15e-05,-0.03274420461676897,7.375131173581745e-07
9.2e-05,-0.040406498477574715,9.202318473658708e-07
9.25e-05,-0.04724024981665309,9.980267284282713e-07
9.3e-05,-0.044752250288853546,9.620276715860873e-07
9.35e-05,-0.035605764339692314,8.163392507171869e-07
9.4e-05,-0.026340394324755323,5.775727034222717e-07
9.449999999999999e-05,-0.012516267210193277,2.7295193551732987e-07
9.499999999999999e-05,0.003202642329217298,-6.279051952930873e-08
9.549999999999999e-05,0.019852035069124696,-3.913736668371983e-07
9.6e-05,0.03128636395484996,-6.753328081210212e-07
9.65e-05,0.03823987679867358,-8.822912264349514e-07
9.7e-05,0.04520362109007081,-9.886517447379133e-07
9.75e-05,0.04438813323726443,-9.822872507286893e-07
9.8e-05,0.0370082069106612,-8.63923417192837e-07
9.85e-05,0.030436756906487616,-6.470559615694467e-07
9.9e-05,0.01565407031703714,-3.564118787132535e-07
9.949999999999999e-05,0.00389589923481104,-2.5130095443340325e-08
