time (s),power (mW),amplitude (m) = 1e-06,bundle radius = 0.0033,fiber radius = 0.0001875,# fibers = 50,beam waist = 0.006392857142857143,cladding radius = 6.25e-05,total power (mW) = 90,sampling rate = 2000000.0,trace length = 0.0001,signal frequency = 108000.0
0.0,-0.023486867399460376,1e-06
5e-07,-0.023792237268029925,9.429905358928645e-07
1e-06,-0.02115298947414823,7.784623015670234e-07
1.5e-06,-0.013856346376381445,5.251746299612957e-07
2e-06,-0.006293140179048251,2.1200710992205473e-07
2.4999999999999998e-06,0.0033356382051539235,-1.2533323356430415e-07
3e-06,0.01256750832993081,-4.483832160900321e-07
3.5e-06,0.020465174120042562,-7.203090248879069e-07
4e-06,0.022167919499077815,-9.101059706849956e-07
4.5e-06,0.023158043262804462,-9.961336091431724e-07
4.9999999999999996e-06,0.023487985990063187,-9.685831611286312e-07
5.5e-06,0.022143799042397383,-8.305958991958126e-07
6e-06,0.01716798500564254,-5.97904983057519e-07
6.5e-06,0.007998352698161515,-2.97041581577035e-07
7e-06,-0.0009813757451637706,3.769018266993467e-08
7.499999999999999e-06,-0.010271771943761276,3.681245526846774e-07
8e-06,-0.01881430827961328,6.565857557529562e-07
8.5e-06,-0.022150152183914695,8.701837546695255e-07
9e-06,-0.023487985990063187,9.845643345292053e-07
9.499999999999999e-06,-0.023487985990063187,9.86685944207868e-07
9.999999999999999e-06,-0.022150152183914695,8.763066800438638e-07
1.05e-05,-0.019128055611872696,6.660118674342518e-07
1.1e-05,-0.010623208824615649,3.797790955218012e-07
1.15e-05,-0.0016333957052667714,5.0244318179769394e-08
1.2e-05,0.007979823822005017,-2.850192624699756e-07
1.2499999999999999e-05,0.0168431619490792,-5.877852522924729e-07
1.3e-05,0.021822693137779847,-8.235325976284273e-07
1.35e-05,0.023487985990063187,-9.653816388332737e-07
1.4e-05,0.023158043262804462,-9.97158900260614e-07
1.45e-05,0.022181609225234045,-9.152411726209174e-07
1.4999999999999999e-05,0.020465174120042562,-7.289686274214123e-07
1.55e-05,0.013213146580731472,-4.595798606214871e-07
1.6e-05,0.004285389494493419,-1.3779029068463877e-07
1.6499999999999998e-05,-0.005300584165116806,1.9970998051440476e-07
1.7e-05,-0.013856346376381445,5.144395337815062e-07
1.75e-05,-0.020821805582044828,7.70513242775788e-07
1.8e-05,-0.022841009582580618,9.387338576538741e-07
1.85e-05,-0.023486867399460376,9.99921044203816e-07
1.8999999999999998e-05,-0.023487985990063187,9.470983049947447e-07
1.95e-05,-0.02085623824762406,7.862884321366196e-07
1.9999999999999998e-05,-0.014529846385553657,5.358267949789973e-07
2.05e-05,-0.006646459119172832,2.2427076094938186e-07
2.1e-05,0.003648349634494341,-1.128563848734812e-07
2.1499999999999997e-05,0.011914054166361154,-4.3711576665093104e-07
2.2e-05,0.020452137924856117,-7.115356772092852e-07
2.2499999999999998e-05,0.022482444339252172,-9.048270524660188e-07
2.3e-05,0.023158043262804462,-9.949510169813001e-07
2.35e-05,0.023487985990063187,-9.71631732914674e-07
2.4e-05,0.022143799042397383,-8.375280400421423e-07
2.45e-05,0.01716798500564254,-6.07930297694606e-07
2.4999999999999998e-05,0.008330796341922131,-3.09016994374948e-07
2.55e-05,-0.0009813757451637706,2.5130095443337016e-08
2.6e-05,-0.010271771943761276,3.564118787132505e-07
2.65e-05,-0.01848585335687636,6.470559615694442e-07
2.7e-05,-0.022134420280212286,8.639234171928353e-07
2.7499999999999998e-05,-0.023487985990063187,9.82287250728688e-07
2.8e-05,-0.023487985990063187,9.88651744737914e-07
2.8499999999999998e-05,-0.022150152183914695,8.822912264349545e-07
2.9e-05,-0.019463775257194893,6.753328081210237e-07
2.95e-05,-0.010941314615607656,3.913736668372046e-07
2.9999999999999997e-05,-0.001682742714739227,6.279051952931557e-08
3.05e-05,0.007979823822005017,-2.7295193551732325e-07
3.1e-05,0.015860616151099016,-5.77572703422269e-07
3.15e-05,0.021822693137779847,-8.16339250717183e-07
3.2e-05,0.023487985990063187,-9.620276715860854e-07
3.25e-05,0.023486867399459932,-9.980267284282717e-07
3.2999999999999996e-05,0.022181609225234045,-9.202318473658721e-07
3.35e-05,0.020483853489035475,-7.375131173581744e-07
3.4e-05,0.013525502854811577,-4.707039321653331e-07
3.45e-05,0.004616683298861002,-1.5022558912075744e-07
3.5e-05,-0.005300584165116806,1.8738131458572093e-07
3.5499999999999996e-05,-0.013533169623971109,5.036232016357578e-07
3.6e-05,-0.020494573243142966,7.62442511011448e-07
3.65e-05,-0.022841009582580618,9.343289424566121e-07
3.7e-05,-0.023486867399460376,9.996841892833e-07
3.75e-05,-0.023487985990063187,9.510565162951544e-07
3.7999999999999995e-05,-0.02085623824762406,7.939903986478369e-07
3.85e-05,-0.014529846385553657,5.463943467342681e-07
3.9e-05,-0.006960123886919689,2.3649899702372676e-07
3.95e-05,0.003001902153819902,-1.0036171485121293e-07
3.9999999999999996e-05,0.011574042807034335,-4.2577929156507105e-07
4.0499999999999995e-05,0.020452137924856117,-7.026499697988455e-07
4.1e-05,0.022482444339252172,-8.994052515663704e-07
4.15e-05,0.023158043262804462,-9.936113105200082e-07
4.2e-05,0.023487985990063187,-9.745268727865773e-07
4.2499999999999996e-05,0.022143799042397383,-8.443279255020174e-07
4.2999999999999995e-05,0.017165542379042442,-6.178596130903375e-07
4.35e-05,0.009294015249696752,-3.2094360980720983e-07
4.4e-05,-0.0003242785249661928,1.2566039883352439e-08
4.45e-05,-0.009945345492408109,3.4464292317451373e-07
4.4999999999999996e-05,-0.018152616141587252,6.374239897486871e-07
4.5499999999999995e-05,-0.021828848339541462,8.575266561936507e-07
4.6e-05,-0.023487985990063187,9.79855052384247e-07
4.65e-05,-0.023158043262804462,9.904614256966516e-07
4.7e-05,-0.022482444339251728,8.881364488135457e-07
4.7499999999999996e-05,-0.019791139145072467,6.845471059286904e-07
4.8e-05,-0.011272272501136715,4.029064357136646e-07
4.85e-05,-0.00201344441666107,7.532680552793464e-08
4.9e-05,0.007646272706434143,-2.608415062898953e-07
4.95e-05,0.015201516375728641,-5.672689491267553e-07
4.9999999999999996e-05,0.021509486536241962,-8.090169943749467e-07
5.05e-05,0.023487985990063187,-9.585217890173756e-07
5.1e-05,0.023486867399459932,-9.987369566060174e-07
5.15e-05,0.022181609225234045,-9.250772068344583e-07
5.2e-05,0.020483853489035475,-7.459411454241824e-07
5.2499999999999995e-05,0.013532383000564696,-4.817536741017217e-07
5.3e-05,0.004616683298861002,-1.6263716519488372e-07
5.35e-05,-0.004973468993815455,1.750230589752761e-07
5.4e-05,-0.0132248938476347,4.927273415482918e-07
5.4499999999999997e-05,-0.020494573243142966,7.542513807360994e-07
5.4999999999999995e-05,-0.022509676149288893,9.29776485888249e-07
5.55e-05,-0.023486867399460376,9.992894726405892e-07
5.6e-05,-0.023487985990063187,9.548645447466425e-07
5.65e-05,-0.021509486536241518,8.015669848708801e-07
5.6999999999999996e-05,-0.01454414431182327,5.568756164881927e-07
5.7499999999999995e-05,-0.007288085829559865,2.4868988716486003e-07
5.8e-05,0.002013444416660626,-8.785119655074504e-08
5.85e-05,0.010952524601770985,-4.1437558099327953e-07
5.9e-05,0.019791139145072467,-6.936533058128014e-07
5.9499999999999996e-05,0.022482444339252172,-8.938414241512616e-07
5.9999999999999995e-05,0.023158043262804462,-9.921147013144774e-07
6.05e-05,0.023487985990063187,-9.772681235681944e-07
6.1e-05,0.022143799042397383,-8.509944817946939e-07
6.149999999999999e-05,0.01749377895740345,-6.27691361290709e-07
6.2e-05,0.009612986149694969,-3.328195445229833e-07
6.25e-05,-4.440892098500626e-16,-3.429630018249177e-21
6.3e-05,-0.009612986149694969,3.3281954452298363e-07
6.35e-05,-0.01749377895740345,6.276913612906982e-07
6.4e-05,-0.02214379904239694,8.509944817946903e-07
6.45e-05,-0.023487985990063187,9.77268123568193e-07
6.5e-05,-0.023158043262804462,9.92114701314478e-07
6.549999999999999e-05,-0.022482444339251728,8.93841424151268e-07
6.599999999999999e-05,-0.019791139145072467,6.936533058128116e-07
6.65e-05,-0.010952524601770985,4.143755809932858e-07
6.7e-05,-0.00201344441666107,8.78511965507448e-08
6.75e-05,0.007288085829558977,-2.486898871648534e-07
6.8e-05,0.014544144311822826,-5.568756164881869e-07
6.85e-05,0.021509486536241962,-8.015669848708759e-07
6.9e-05,0.023487985990063187,-9.548645447466427e-07
6.95e-05,0.023486867399459932,-9.992894726405895e-07
7e-05,0.022509676149288893,-9.29776485888254e-07
7.049999999999999e-05,0.020494573243142966,-7.542513807361086e-07
7.099999999999999e-05,0.013224893847635588,-4.927273415482978e-07
7.15e-05,0.004973468993814567,-1.7502305897527587e-07
7.2e-05,-0.004616683298860558,1.6263716519488396e-07
7.25e-05,-0.013532383000563808,4.817536741017157e-07
7.3e-05,-0.020483853489035475,7.459411454241827e-07
7.35e-05,-0.0221816092252336,9.250772068344556e-07
7.4e-05,-0.023486867399460376,9.987369566060172e-07
7.45e-05,-0.023487985990063187,9.585217890173775e-07
7.5e-05,-0.021509486536241518,8.090169943749506e-07
7.549999999999999e-05,-0.015201516375728641,5.672689491267608e-07
7.599999999999999e-05,-0.007646272706435031,2.6084150628990185e-07
7.65e-05,0.002013444416660626,-7.532680552793489e-08
7.7e-05,0.01127227250113716,-4.029064357136648e-07
7.75e-05,0.019791139145072467,-6.845471059286854e-07
7.8e-05,0.022482444339252172,-8.881364488135424e-07
7.85e-05,0.023158043262804462,-9.904614256966505e-07
7.9e-05,0.023487985990063187,-9.798550523842475e-07
7.95e-05,0.02182884833954235,-8.575266561936541e-07
7.999999999999999e-05,0.018152616141587696,-6.374239897486923e-07
8.049999999999999e-05,0.009945345492408109,-3.4464292317452686e-07
8.099999999999999e-05,0.0003242785249653046,-1.2566039883362848e-08
8.15e-05,-0.009294015249696752,3.209436098072067e-07
8.2e-05,-0.017165542379042886,6.178596130903322e-07
8.25e-05,-0.02214379904239694,8.443279255020138e-07
8.3e-05,-0.023487985990063187,9.745268727865766e-07
8.35e-05,-0.023158043262804462,9.936113105200086e-07
8.4e-05,-0.022482444339251728,8.994052515663718e-07
8.45e-05,-0.02045213792485656,7.026499697988555e-07
8.499999999999999e-05,-0.01157404280703389,4.2577929156508047e-07
8.549999999999999e-05,-0.003001902153820346,1.0036171485122329e-07
8.599999999999999e-05,0.006960123886919245,-2.3649899702371668e-07
8.65e-05,0.014529846385553657,-5.463943467342683e-07
8.7e-05,0.020856238247624503,-7.939903986478348e-07
8.75e-05,0.023487985990063187,-9.510565162951534e-07
8.8e-05,0.023486867399459932,-9.996841892833e-07
8.85e-05,0.022841009582581062,-9.343289424566146e-07
8.9e-05,0.020494573243142966,-7.624425110114524e-07
8.95e-05,0.013533169623971109,-5.036232016357668e-07
8.999999999999999e-05,0.005300584165116362,-1.8738131458573115e-07
9.049999999999999e-05,-0.004616683298860558,1.5022558912075066e-07
9.099999999999999e-05,-0.01352550285481069,4.7070393216532704e-07
9.15e-05,-0.020483853489035475,7.375131173581745e-07
9.2e-05,-0.0221816092252336,9.202318473658708e-07
9.25e-05,-0.023486867399460376,9.980267284282713e-07
9.3e-05,-0.023487985990063187,9.620276715860873e-07
9.35e-05,-0.021822693137779847,8.163392507171869e-07
9.4e-05,-0.01586061615109946,5.775727034222717e-07
9.449999999999999e-05,-0.00797982382200546,2.7295193551732987e-07
9.499999999999999e-05,0.001682742714738783,-6.279051952930873e-08
9.549999999999999e-05,0.0109413146156081,-3.913736668371983e-07
9.6e-05,0.019463775257194893,-6.753328081210212e-07
9.65e-05,0.02215015218391514,-8.822912264349514e-07
9.7e-05,0.023487985990063187,-9.886517447379133e-07
9.75e-05,0.023487985990063187,-9.822872507286893e-07
9.8e-05,0.022134420280213174,-8.63923417192837e-07
9.85e-05,0.018485853356876802,-6.470559615694467e-07
9.9e-05,0.010271771943761276,-3.564118787132535e-07
9.949999999999999e-05,0.0009813757451624383,-2.5130095443340325e-08
