time (s),power (mW),amplitude (m) = 1e-06,bundle radius = 0.0033,fiber radius = 0.0001875,# fibers = 220,beam waist = 0.0009540816326530613,cladding radius = 6.25e-05,total power (mW) = 90,sampling rate = 2000000.0,trace length = 0.0001,signal frequency = 108000.0
0.0,-0.09801205167716631,1e-06
5e-07,-0.09535868657935431,9.429905358928645e-07
1e-06,-0.0814820200306059,7.784623015670234e-07
1.5e-06,-0.051283942580759856,5.251746299612957e-07
2e-06,-0.024141197211367427,2.1200710992205473e-07
2.4999999999999998e-06,0.015097550103305934,-1.2533323356430415e-07
3e-06,0.04374195855386276,-4.483832160900321e-07
3.5e-06,0.07085768210713539,-7.203090248879069e-07
4e-06,0.09079401932437392,-9.101059706849956e-07
4.5e-06,0.09798147342692687,-9.961336091431724e-07
4.9999999999999996e-06,0.09634056460595097,-9.685831611286312e-07
5.5e-06,0.08114202237309165,-8.305958991958126e-07
6e-06,0.059730254913237246,-5.97904983057519e-07
6.5e-06,0.03155556614427368,-2.97041581577035e-07
7e-06,-0.0036736226073585954,3.769018266993467e-08
7.499999999999999e-06,-0.03677727165186795,3.681245526846774e-07
8e-06,-0.06581875077883481,6.565857557529562e-07
8.5e-06,-0.08560772582804788,8.701837546695255e-07
9e-06,-0.09967690432835852,9.845643345292053e-07
9.499999999999999e-06,-0.09880860383836243,9.86685944207868e-07
9.999999999999999e-06,-0.08576771787694781,8.763066800438638e-07
1.05e-05,-0.06703243261414116,6.660118674342518e-07
1.1e-05,-0.040418372403209446,3.797790955218012e-07
1.15e-05,-0.004435973137837834,5.0244318179769394e-08
1.2e-05,0.028155249031623697,-2.850192624699756e-07
1.2499999999999999e-05,0.058316328530327866,-5.877852522924729e-07
1.3e-05,0.08263535541846423,-8.235325976284273e-07
1.35e-05,0.09558430489549785,-9.653816388332737e-07
1.4e-05,0.09798147342692687,-9.97158900260614e-07
1.45e-05,0.09178554166118857,-9.152411726209174e-07
1.4999999999999999e-05,0.0737427681565066,-7.289686274214123e-07
1.55e-05,0.04578854032118329,-4.595798606214871e-07
1.6e-05,0.017765401147201487,-1.3779029068463877e-07
1.6499999999999998e-05,-0.02333446852467347,1.9970998051440476e-07
1.7e-05,-0.049552458219839224,5.144395337815062e-07
1.75e-05,-0.08039294814352971,7.70513242775788e-07
1.8e-05,-0.09419915085089059,9.387338576538741e-07
1.85e-05,-0.09801205167716631,9.99921044203816e-07
1.8999999999999998e-05,-0.09625638231354827,9.470983049947447e-07
1.95e-05,-0.08137857047686303,7.862884321366196e-07
1.9999999999999998e-05,-0.052494947236091605,5.358267949789973e-07
2.05e-05,-0.024316286994356062,2.2427076094938186e-07
2.1e-05,0.013263563594080097,-1.128563848734812e-07
2.1499999999999997e-05,0.04602084419796881,-4.3711576665093104e-07
2.2e-05,0.06967366231912564,-7.115356772092852e-07
2.2499999999999998e-05,0.09078055871735735,-9.048270524660188e-07
2.3e-05,0.09841297007917404,-9.949510169813001e-07
2.35e-05,0.09592393886386041,-9.71631732914674e-07
2.4e-05,0.081169363805639,-8.375280400421423e-07
2.45e-05,0.061343460276972905,-6.07930297694606e-07
2.4999999999999998e-05,0.031040848841243474,-3.09016994374948e-07
2.55e-05,-0.0027026560741560957,2.5130095443337016e-08
2.6e-05,-0.03635257894031341,3.564118787132505e-07
2.65e-05,-0.06518741490331337,6.470559615694442e-07
2.7e-05,-0.0840468822285807,8.639234171928353e-07
2.7499999999999998e-05,-0.09856727651488129,9.82287250728688e-07
2.8e-05,-0.09880860383836243,9.88651744737914e-07
2.8499999999999998e-05,-0.08667554466925864,8.822912264349545e-07
2.9e-05,-0.06722348101550679,6.753328081210237e-07
2.95e-05,-0.04170491718185332,3.913736668372046e-07
2.9999999999999997e-05,-0.006005100122607132,6.279051952931557e-08
3.05e-05,0.029068638137538017,-2.7295193551732325e-07
3.1e-05,0.058566480360905615,-5.77572703422269e-07
3.15e-05,0.08290505502665901,-8.16339250717183e-07
3.2e-05,0.09528298878548469,-9.620276715860854e-07
3.25e-05,0.09798147342692687,-9.980267284282717e-07
3.2999999999999996e-05,0.09296198122902766,-9.202318473658721e-07
3.35e-05,0.07587192951161725,-7.375131173581744e-07
3.4e-05,0.04594029049280124,-4.707039321653331e-07
3.45e-05,0.020313234866723207,-1.5022558912075744e-07
3.5e-05,-0.021031003257309777,1.8738131458572093e-07
3.5499999999999996e-05,-0.047277403933232875,5.036232016357578e-07
3.6e-05,-0.07954922242598528,7.62442511011448e-07
3.65e-05,-0.09328186106770886,9.343289424566121e-07
3.7e-05,-0.09801205167716631,9.996841892833e-07
3.75e-05,-0.09575225427187206,9.510565162951544e-07
3.7999999999999995e-05,-0.08201257298784626,7.939903986478369e-07
3.85e-05,-0.05598270870970978,5.463943467342681e-07
3.9e-05,-0.024419858101428105,2.3649899702372676e-07
3.95e-05,0.011327911261798107,-1.0036171485121293e-07
3.9999999999999996e-05,0.045482007079332476,-4.2577929156507105e-07
4.0499999999999995e-05,0.06951782439932686,-7.026499697988455e-07
4.1e-05,0.09069861675715529,-8.994052515663704e-07
4.15e-05,0.09872394377834937,-9.936113105200082e-07
4.2e-05,0.09677626632380765,-9.745268727865773e-07
4.2499999999999996e-05,0.08128653583791845,-8.443279255020174e-07
4.2999999999999995e-05,0.06129299123947618,-6.178596130903375e-07
4.35e-05,0.031223504166014493,-3.2094360980720983e-07
4.4e-05,-0.000984530963400232,1.2566039883352439e-08
4.45e-05,-0.03355221069628911,3.4464292317451373e-07
4.4999999999999996e-05,-0.06482444237277107,6.374239897486871e-07
4.5499999999999995e-05,-0.0833424808529557,8.575266561936507e-07
4.6e-05,-0.09764302501622524,9.79855052384247e-07
4.65e-05,-0.09840533213287728,9.904614256966516e-07
4.7e-05,-0.08705574719641618,8.881364488135457e-07
4.7499999999999996e-05,-0.06846976926543391,6.845471059286904e-07
4.8e-05,-0.04311117692242661,4.029064357136646e-07
4.85e-05,-0.008893505514212308,7.532680552793464e-08
4.9e-05,0.028250787470120997,-2.608415062898953e-07
4.95e-05,0.05764629447676484,-5.672689491267553e-07
4.9999999999999996e-05,0.08137528873217903,-8.090169943749467e-07
5.05e-05,0.09643929152309383,-9.585217890173756e-07
5.1e-05,0.09765978616584192,-9.987369566060174e-07
5.15e-05,0.09350815215329433,-9.250772068344583e-07
5.2e-05,0.07500512692883277,-7.459411454241824e-07
5.2499999999999995e-05,0.04578356835661168,-4.817536741017217e-07
5.3e-05,0.019918906341725773,-1.6263716519488372e-07
5.35e-05,-0.02048238092702448,1.750230589752761e-07
5.4e-05,-0.04602758408186247,4.927273415482918e-07
5.4499999999999997e-05,-0.07794300866859771,7.542513807360994e-07
5.4999999999999995e-05,-0.09339276488424986,9.29776485888249e-07
5.55e-05,-0.09801205167716631,9.992894726405892e-07
5.6e-05,-0.09607649210689928,9.548645447466425e-07
5.65e-05,-0.08131155439808779,8.015669848708801e-07
5.6999999999999996e-05,-0.05787549836851724,5.568756164881927e-07
5.7499999999999995e-05,-0.025051270587738372,2.4868988716486003e-07
5.8e-05,0.010283148841370604,-8.785119655074504e-08
5.85e-05,0.0455124703954084,-4.1437558099327953e-07
5.9e-05,0.06878154507628054,-6.936533058128014e-07
5.9499999999999996e-05,0.08860274728023576,-8.938414241512616e-07
5.9999999999999995e-05,0.09872394377834937,-9.921147013144774e-07
6.05e-05,0.09680998523855955,-9.772681235681944e-07
6.1e-05,0.08113986489164304,-8.509944817946939e-07
6.149999999999999e-05,0.062362735379032586,-6.27691361290709e-07
6.2e-05,0.034198391645766435,-3.328195445229833e-07
6.25e-05,-7.105427357601002e-15,-3.429630018249177e-21
6.3e-05,-0.03419839164577709,3.3281954452298363e-07
6.35e-05,-0.062362735379043244,6.276913612906982e-07
6.4e-05,-0.08113986489163949,8.509944817946903e-07
6.45e-05,-0.09680998523856132,9.77268123568193e-07
6.5e-05,-0.09872394377834937,9.92114701314478e-07
6.549999999999999e-05,-0.08860274728024109,8.93841424151268e-07
6.599999999999999e-05,-0.06878154507628764,6.936533058128116e-07
6.65e-05,-0.04551247039541906,4.143755809932858e-07
6.7e-05,-0.010283148841381262,8.78511965507448e-08
6.75e-05,0.02505127058772416,-2.486898871648534e-07
6.8e-05,0.05787549836849948,-5.568756164881869e-07
6.85e-05,0.08131155439808779,-8.015669848708759e-07
6.9e-05,0.09607649210689218,-9.548645447466427e-07
6.95e-05,0.09801205167716631,-9.992894726405895e-07
7e-05,0.0933927648842463,-9.29776485888254e-07
7.049999999999999e-05,0.07794300866859061,-7.542513807361086e-07
7.099999999999999e-05,0.04602758408184826,-4.927273415482978e-07
7.15e-05,0.02048238092701382,-1.7502305897527587e-07
7.2e-05,-0.019918906341743536,1.6263716519488396e-07
7.25e-05,-0.04578356835661879,4.817536741017157e-07
7.3e-05,-0.07500512692883277,7.459411454241827e-07
7.35e-05,-0.09350815215329789,9.250772068344556e-07
7.4e-05,-0.09765978616584547,9.987369566060172e-07
7.45e-05,-0.09643929152309738,9.585217890173775e-07
7.5e-05,-0.08137528873218258,8.090169943749506e-07
7.549999999999999e-05,-0.057646294476775495,5.672689491267608e-07
7.599999999999999e-05,-0.028250787470131655,2.6084150628990185e-07
7.65e-05,0.008893505514198097,-7.532680552793489e-08
7.7e-05,0.0431111769224124,-4.029064357136648e-07
7.75e-05,0.06846976926542325,-6.845471059286854e-07
7.8e-05,0.08705574719641263,-8.881364488135424e-07
7.85e-05,0.09840533213288083,-9.904614256966505e-07
7.9e-05,0.09764302501622701,-9.798550523842475e-07
7.95e-05,0.08334248085295215,-8.575266561936541e-07
7.999999999999999e-05,0.06482444237276397,-6.374239897486923e-07
8.049999999999999e-05,0.0335522106962749,-3.4464292317452686e-07
8.099999999999999e-05,0.0009845309633895738,-1.2566039883362848e-08
8.15e-05,-0.031223504166028704,3.209436098072067e-07
8.2e-05,-0.06129299123949039,6.178596130903322e-07
8.25e-05,-0.081286535837922,8.443279255020138e-07
8.3e-05,-0.09677626632380765,9.745268727865766e-07
8.35e-05,-0.09872394377834937,9.936113105200086e-07
8.4e-05,-0.0906986167571624,8.994052515663718e-07
8.45e-05,-0.06951782439933041,7.026499697988555e-07
8.499999999999999e-05,-0.04548200707935024,4.2577929156508047e-07
8.549999999999999e-05,-0.011327911261808765,1.0036171485122329e-07
8.599999999999999e-05,0.024419858101417447,-2.3649899702371668e-07
8.65e-05,0.055982708709699125,-5.463943467342683e-07
8.7e-05,0.08201257298784626,-7.939903986478348e-07
8.75e-05,0.09575225427186851,-9.510565162951534e-07
8.8e-05,0.09801205167716631,-9.996841892833e-07
8.85e-05,0.09328186106770353,-9.343289424566146e-07
8.9e-05,0.07954922242598528,-7.624425110114524e-07
8.95e-05,0.04727740393322577,-5.036232016357668e-07
8.999999999999999e-05,0.021031003257295566,-1.8738131458573115e-07
9.049999999999999e-05,-0.020313234866737417,1.5022558912075066e-07
9.099999999999999e-05,-0.045940290492808344,4.7070393216532704e-07
9.15e-05,-0.07587192951162436,7.375131173581745e-07
9.2e-05,-0.09296198122902943,9.202318473658708e-07
9.25e-05,-0.09798147342693042,9.980267284282713e-07
9.3e-05,-0.09528298878548469,9.620276715860873e-07
9.35e-05,-0.08290505502666079,8.163392507171869e-07
9.4e-05,-0.05856648036091627,5.775727034222717e-07
9.449999999999999e-05,-0.02906863813755578,2.7295193551732987e-07
9.499999999999999e-05,0.0060051001225893685,-6.279051952930873e-08
9.549999999999999e-05,0.04170491718184621,-3.913736668371983e-07
9.6e-05,0.06722348101549969,-6.753328081210212e-07
9.65e-05,0.08667554466925509,-8.822912264349514e-07
9.7e-05,0.09880860383836243,-9.886517447379133e-07
9.75e-05,0.09856727651487951,-9.822872507286893e-07
9.8e-05,0.08404688222857715,-8.63923417192837e-07
9.85e-05,0.06518741490330271,-6.470559615694467e-07
9.9e-05,0.036352578940299196,-3.564118787132535e-07
9.949999999999999e-05,0.002702656074141885,-2.5130095443340325e-08
