time (s),power (mW),amplitude (m) = 1e-06,bundle radius = 0.0033,fiber radius = 0.0001875,# fibers = 220,beam waist = 0.0006974489795918367,cladding radius = 6.25e-05,total power (mW) = 90,sampling rate = 2000000.0,trace length = 0.0001,signal frequency = 108000.0
0.0,-0.09944465043645856,1e-06
5e-07,-0.09329061297267316,9.429905358928645e-07
1e-06,-0.07606394067754074,7.784623015670234e-07
1.5e-06,-0.050257845241556964,5.251746299612957e-07
2e-06,-0.02299671688643734,2.1200710992205473e-07
2.4999999999999998e-06,0.007901508079516617,-1.2533323356430415e-07
3e-06,0.04429722746111331,-4.483832160900321e-07
3.5e-06,0.06897492893173585,-7.203090248879069e-07
4e-06,0.09180985704537292,-9.101059706849956e-07
4.5e-06,0.09932608060466563,-9.961336091431724e-07
4.9999999999999996e-06,0.09602395995310609,-9.685831611286312e-07
5.5e-06,0.08517433816472142,-8.305958991958126e-07
6e-06,0.059899478224743063,-5.97904983057519e-07
6.5e-06,0.027705550171125637,-2.97041581577035e-07
7e-06,-0.002133504221506044,3.769018266993467e-08
7.499999999999999e-06,-0.03519375727532115,3.681245526846774e-07
8e-06,-0.06679105437938482,6.565857557529562e-07
8.5e-06,-0.08729946564146296,8.701837546695255e-07
9e-06,-0.0978000949008564,9.845643345292053e-07
9.499999999999999e-06,-0.09776583959741991,9.86685944207868e-07
9.999999999999999e-06,-0.08785336972434976,8.763066800438638e-07
1.05e-05,-0.06741329534956009,6.660118674342518e-07
1.1e-05,-0.03548749136184881,3.797790955218012e-07
1.15e-05,-0.004703789176442541,5.0244318179769394e-08
1.2e-05,0.027185420151811357,-2.850192624699756e-07
1.2499999999999999e-05,0.05965102356953622,-5.877852522924729e-07
1.3e-05,0.08349459837057616,-8.235325976284273e-07
1.35e-05,0.09501860415775987,-9.653816388332737e-07
1.4e-05,0.09932608060466563,-9.97158900260614e-07
1.45e-05,0.09112071082448381,-9.152411726209174e-07
1.4999999999999999e-05,0.06985163738875322,-7.289686274214123e-07
1.55e-05,0.04528702387770167,-4.595798606214871e-07
1.6e-05,0.013715289182673729,-1.3779029068463877e-07
1.6499999999999998e-05,-0.02230873190755034,1.9970998051440476e-07
1.7e-05,-0.04932535895252599,5.144395337815062e-07
1.75e-05,-0.07661944762466177,7.70513242775788e-07
1.8e-05,-0.09398018898140847,9.387338576538741e-07
1.85e-05,-0.09944465043645856,9.99921044203816e-07
1.8999999999999998e-05,-0.09392917557421931,9.470983049947447e-07
1.95e-05,-0.0788353403443054,7.862884321366196e-07
1.9999999999999998e-05,-0.0538298641276338,5.358267949789973e-07
2.05e-05,-0.023402804706790903,2.2427076094938186e-07
2.1e-05,0.008801180614348425,-1.128563848734812e-07
2.1499999999999997e-05,0.04333843699577855,-4.3711576665093104e-07
2.2e-05,0.06860354616666875,-7.115356772092852e-07
2.2499999999999998e-05,0.09154334338125025,-9.048270524660188e-07
2.3e-05,0.09932608060466563,-9.949510169813001e-07
2.35e-05,0.09707757362045832,-9.71631732914674e-07
2.4e-05,0.08445222805330665,-8.375280400421423e-07
2.45e-05,0.06171851048515897,-6.07930297694606e-07
2.4999999999999998e-05,0.02976361355657886,-3.09016994374948e-07
2.55e-05,-0.00028550644164937466,2.5130095443337016e-08
2.6e-05,-0.034551270221346186,3.564118787132505e-07
2.65e-05,-0.06578316628430692,6.470559615694442e-07
2.7e-05,-0.08674487878195691,8.639234171928353e-07
2.7499999999999998e-05,-0.0978000949008564,9.82287250728688e-07
2.8e-05,-0.0978878980112814,9.88651744737914e-07
2.8499999999999998e-05,-0.08802096569073647,8.822912264349545e-07
2.9e-05,-0.06961785495916928,6.753328081210237e-07
2.95e-05,-0.03836950950201512,3.913736668372046e-07
2.9999999999999997e-05,-0.005338108687496401,6.279051952931557e-08
3.05e-05,0.025762107562135483,-2.7295193551732325e-07
3.1e-05,0.059374251299999514,-5.77572703422269e-07
3.15e-05,0.08337886681871964,-8.16339250717183e-07
3.2e-05,0.09383871585905545,-9.620276715860854e-07
3.25e-05,0.09932608060466563,-9.980267284282717e-07
3.2999999999999996e-05,0.09166728902915366,-9.202318473658721e-07
3.35e-05,0.06926705794878174,-7.375131173581744e-07
3.4e-05,0.047619838227342726,-4.707039321653331e-07
3.45e-05,0.016085594974203588,-1.5022558912075744e-07
3.5e-05,-0.022781128796561134,1.8738131458572093e-07
3.5499999999999996e-05,-0.04981381951986208,5.036232016357578e-07
3.6e-05,-0.07319755365866598,7.62442511011448e-07
3.65e-05,-0.09390483873012911,9.343289424566121e-07
3.7e-05,-0.09944465043645856,9.996841892833e-07
3.75e-05,-0.09283556435594598,9.510565162951544e-07
3.7999999999999995e-05,-0.08211512160019652,7.939903986478369e-07
3.85e-05,-0.05671237953301933,5.463943467342681e-07
3.9e-05,-0.02293172775089225,2.3649899702372676e-07
3.95e-05,0.008084175348967548,-1.0036171485121293e-07
3.9999999999999996e-05,0.042849406323258066,-4.2577929156507105e-07
4.0499999999999995e-05,0.06914844839805667,-7.026499697988455e-07
4.1e-05,0.09299450576962087,-8.994052515663704e-07
4.15e-05,0.0983555118171946,-9.936113105200082e-07
4.2e-05,0.0966687570517486,-9.745268727865773e-07
4.2499999999999996e-05,0.08605762052055788,-8.443279255020174e-07
4.2999999999999995e-05,0.06278755777375622,-6.178596130903375e-07
4.35e-05,0.0313323543635633,-3.2094360980720983e-07
4.4e-05,-0.0014297465684247612,1.2566039883352439e-08
4.45e-05,-0.03268854186780423,3.4464292317451373e-07
4.4999999999999996e-05,-0.06559797140218926,6.374239897486871e-07
4.5499999999999995e-05,-0.08577399421753995,8.575266561936507e-07
4.6e-05,-0.09764882546587828,9.79855052384247e-07
4.65e-05,-0.09835551181720348,9.904614256966516e-07
4.7e-05,-0.09007943369659266,8.881364488135457e-07
4.7499999999999996e-05,-0.0703972277010756,6.845471059286904e-07
4.8e-05,-0.04229548926805826,4.029064357136646e-07
4.85e-05,-0.007216283097287501,7.532680552793464e-08
4.9e-05,0.02513805493054555,-2.608415062898953e-07
4.95e-05,0.0580043760282134,-5.672689491267553e-07
4.9999999999999996e-05,0.08485124652197129,-8.090169943749467e-07
5.05e-05,0.0937479646119197,-9.585217890173756e-07
5.1e-05,0.09895337016938477,-9.987369566060174e-07
5.15e-05,0.09243743659953552,-9.250772068344583e-07
5.2e-05,0.07260163073817694,-7.459411454241824e-07
5.2499999999999995e-05,0.04825629940671483,-4.817536741017217e-07
5.3e-05,0.018013549238602877,-1.6263716519488372e-07
5.35e-05,-0.019028431597448048,1.750230589752761e-07
5.4e-05,-0.04921359839337569,4.927273415482918e-07
5.4499999999999997e-05,-0.07383345960425025,7.542513807360994e-07
5.4999999999999995e-05,-0.09266248941902333,9.29776485888249e-07
5.55e-05,-0.09944465043645856,9.992894726405892e-07
5.6e-05,-0.09210265610247248,9.548645447466425e-07
5.65e-05,-0.08464955388485684,8.015669848708801e-07
5.6999999999999996e-05,-0.05807526786866113,5.568756164881927e-07
5.7499999999999995e-05,-0.02244503645665219,2.4868988716486003e-07
5.8e-05,0.008479206720387822,-8.785119655074504e-08
5.85e-05,0.0433484784436331,-4.1437558099327953e-07
5.9e-05,0.06907506226656679,-6.936533058128014e-07
5.9499999999999996e-05,0.09134893345033746,-8.938414241512616e-07
5.9999999999999995e-05,0.0983555118171946,-9.921147013144774e-07
6.05e-05,0.09724545634587756,-9.772681235681944e-07
6.1e-05,0.08533496338656654,-8.509944817946939e-07
6.149999999999999e-05,0.0644984930541792,-6.27691361290709e-07
6.2e-05,0.032903593066500036,-3.328195445229833e-07
6.25e-05,-3.552713678800501e-15,-3.429630018249177e-21
6.3e-05,-0.032903593066505366,3.3281954452298363e-07
6.35e-05,-0.06449849305418454,6.276913612906982e-07
6.4e-05,-0.0853349633865701,8.509944817946903e-07
6.45e-05,-0.09724545634588466,9.77268123568193e-07
6.5e-05,-0.09835551181720348,9.92114701314478e-07
6.549999999999999e-05,-0.09134893345033923,8.93841424151268e-07
6.599999999999999e-05,-0.06907506226656679,6.936533058128116e-07
6.65e-05,-0.043348478443640204,4.143755809932858e-07
6.7e-05,-0.008479206720394927,8.78511965507448e-08
6.75e-05,0.022445036456648637,-2.486898871648534e-07
6.8e-05,0.058075267868657576,-5.568756164881869e-07
6.85e-05,0.08464955388485507,-8.015669848708759e-07
6.9e-05,0.09210265610247603,-9.548645447466427e-07
6.95e-05,0.09944465043645145,-9.992894726405895e-07
7e-05,0.09266248941902333,-9.29776485888254e-07
7.049999999999999e-05,0.07383345960424137,-7.542513807361086e-07
7.099999999999999e-05,0.04921359839337036,-4.927273415482978e-07
7.15e-05,0.019028431597444495,-1.7502305897527587e-07
7.2e-05,-0.018013549238609983,1.6263716519488396e-07
7.25e-05,-0.048256299406721936,4.817536741017157e-07
7.3e-05,-0.07260163073818227,7.459411454241827e-07
7.35e-05,-0.09243743659953729,9.250772068344556e-07
7.4e-05,-0.09895337016939365,9.987369566060172e-07
7.45e-05,-0.09374796461192325,9.585217890173775e-07
7.5e-05,-0.08485124652197484,8.090169943749506e-07
7.549999999999999e-05,-0.05800437602821873,5.672689491267608e-07
7.599999999999999e-05,-0.025138054930547327,2.6084150628990185e-07
7.65e-05,0.007216283097283949,-7.532680552793489e-08
7.7e-05,0.042295489268051156,-4.029064357136648e-07
7.75e-05,0.07039722770107026,-6.845471059286854e-07
7.8e-05,0.09007943369659266,-8.881364488135424e-07
7.85e-05,0.0983555118171946,-9.904614256966505e-07
7.9e-05,0.09764882546587117,-9.798550523842475e-07
7.95e-05,0.08577399421753462,-8.575266561936541e-07
7.999999999999999e-05,0.06559797140218215,-6.374239897486923e-07
8.049999999999999e-05,0.032688541867802456,-3.4464292317452686e-07
8.099999999999999e-05,0.0014297465684194322,-1.2566039883362848e-08
8.15e-05,-0.0313323543635704,3.209436098072067e-07
8.2e-05,-0.06278755777375977,6.178596130903322e-07
8.25e-05,-0.08605762052055965,8.443279255020138e-07
8.3e-05,-0.09666875705175393,9.745268727865766e-07
8.35e-05,-0.09835551181720348,9.936113105200086e-07
8.4e-05,-0.09299450576962087,8.994052515663718e-07
8.45e-05,-0.06914844839806022,7.026499697988555e-07
8.499999999999999e-05,-0.042849406323263395,4.2577929156508047e-07
8.549999999999999e-05,-0.008084175348972877,1.0036171485122329e-07
8.599999999999999e-05,0.022931727750890474,-2.3649899702371668e-07
8.65e-05,0.056712379533012225,-5.463943467342683e-07
8.7e-05,0.08211512160018941,-7.939903986478348e-07
8.75e-05,0.09283556435594598,-9.510565162951534e-07
8.8e-05,0.09944465043645145,-9.996841892833e-07
8.85e-05,0.09390483873013089,-9.343289424566146e-07
8.9e-05,0.07319755365865888,-7.624425110114524e-07
8.95e-05,0.049813819519854974,-5.036232016357668e-07
8.999999999999999e-05,0.022781128796555805,-1.8738131458573115e-07
9.049999999999999e-05,-0.01608559497420714,1.5022558912075066e-07
9.099999999999999e-05,-0.04761983822734628,4.7070393216532704e-07
9.15e-05,-0.0692670579487853,7.375131173581745e-07
9.2e-05,-0.09166728902915366,9.202318473658708e-07
9.25e-05,-0.09932608060467629,9.980267284282713e-07
9.3e-05,-0.09383871585906078,9.620276715860873e-07
9.35e-05,-0.0833788668187232,8.163392507171869e-07
9.4e-05,-0.05937425130000484,5.775727034222717e-07
9.449999999999999e-05,-0.02576210756213726,2.7295193551732987e-07
9.499999999999999e-05,0.005338108687494625,-6.279051952930873e-08
9.549999999999999e-05,0.03836950950201157,-3.913736668371983e-07
9.6e-05,0.06961785495916573,-6.753328081210212e-07
9.65e-05,0.0880209656907347,-8.822912264349514e-07
9.7e-05,0.09788789801127784,-9.886517447379133e-07
9.75e-05,0.09780009490084929,-9.822872507286893e-07
9.8e-05,0.08674487878195158,-8.63923417192837e-07
9.85e-05,0.06578316628430336,-6.470559615694467e-07
9.9e-05,0.03455127022133908,-3.564118787132535e-07
9.949999999999999e-05,0.0002855064416404929,-2.5130095443340325e-08
