time (s),power (mW),amplitude (m) = 1e-06,bundle radius = 0.0033,fiber radius = 0.0001875,# fibers = 50,beam waist = 0.006348469387755102,cladding radius = 6.25e-05,total power (mW) = 90,sampling rate = 2000000.0,trace length = 0.0001,signal frequency = 108000.0
0.0,-0.020370406546092124,1e-06
5e-07,-0.017120821861949187,9.429905358928645e-07
1e-06,-0.014220308447927765,7.784623015670234e-07
1.5e-06,-0.010944279850196859,5.251746299612957e-07
2e-06,-0.003517696676538007,2.1200710992205473e-07
2.4999999999999998e-06,0.0015993729573104964,-1.2533323356430415e-07
3e-06,0.008356537163288325,-4.483832160900321e-07
3.5e-06,0.012562367114229644,-7.203090248879069e-07
4e-06,0.016130310223005484,-9.101059706849956e-07
4.5e-06,0.020032496938706457,-9.961336091431724e-07
4.9999999999999996e-06,0.01839584806865968,-9.685831611286312e-07
5.5e-06,0.014844951911268112,-8.305958991958126e-07
6e-06,0.010622097166679056,-5.97904983057519e-07
6.5e-06,0.0051418524197210935,-2.97041581577035e-07
7e-06,5.550110807162056e-06,3.769018266993467e-08
7.499999999999999e-06,-0.006441162894594399,3.681245526846774e-07
8e-06,-0.012229382693348612,6.565857557529562e-07
8.5e-06,-0.01645020562549826,8.701837546695255e-07
9e-06,-0.018736939221152715,9.845643345292053e-07
9.499999999999999e-06,-0.018736939221152715,9.86685944207868e-07
9.999999999999999e-06,-0.01645020562549826,8.763066800438638e-07
1.05e-05,-0.012550017388583079,6.660118674342518e-07
1.1e-05,-0.00611753342835919,3.797790955218012e-07
1.15e-05,-0.00031906523593905334,5.0244318179769394e-08
1.2e-05,0.004828027983593497,-2.850192624699756e-07
1.2499999999999999e-05,0.01062782567539089,-5.877852522924729e-07
1.3e-05,0.014844951911268112,-8.235325976284273e-07
1.35e-05,0.01839584806865968,-9.653816388332737e-07
1.4e-05,0.020370406546091457,-9.97158900260614e-07
1.45e-05,0.016130310223005484,-9.152411726209174e-07
1.4999999999999999e-05,0.012883383604449739,-7.289686274214123e-07
1.55e-05,0.008356537163288325,-4.595798606214871e-07
1.6e-05,0.0015993729573104964,-1.3779029068463877e-07
1.6499999999999998e-05,-0.0028553590961786224,1.9970998051440476e-07
1.7e-05,-0.01062965600083321,5.144395337815062e-07
1.75e-05,-0.013233303071412239,7.70513242775788e-07
1.8e-05,-0.016796465418189133,9.387338576538741e-07
1.85e-05,-0.020370406546092124,9.99921044203816e-07
1.8999999999999998e-05,-0.017438309004186303,9.470983049947447e-07
1.95e-05,-0.014536563395181501,7.862884321366196e-07
1.9999999999999998e-05,-0.010944279850196859,5.358267949789973e-07
2.05e-05,-0.004175381648982457,2.2427076094938186e-07
2.1e-05,0.001280928458698316,-1.128563848734812e-07
2.1499999999999997e-05,0.008046883953877204,-4.3711576665093104e-07
2.2e-05,0.012562367114229644,-7.115356772092852e-07
2.2499999999999998e-05,0.016130310223005484,-9.048270524660188e-07
2.3e-05,0.020032496938706457,-9.949510169813001e-07
2.35e-05,0.01839584806865968,-9.71631732914674e-07
2.4e-05,0.015482497362696135,-8.375280400421423e-07
2.45e-05,0.010622097166679056,-6.07930297694606e-07
2.4999999999999998e-05,0.004810423539079567,-3.09016994374948e-07
2.55e-05,-0.00032816967106397144,2.5130095443337016e-08
2.6e-05,-0.006105547442680326,3.564118787132505e-07
2.65e-05,-0.01158304504344021,6.470559615694442e-07
2.7e-05,-0.01645020562549826,8.639234171928353e-07
2.7499999999999998e-05,-0.018736939221152715,9.82287250728688e-07
2.8e-05,-0.018736939221152715,9.88651744737914e-07
2.8499999999999998e-05,-0.01645020562549826,8.822912264349545e-07
2.9e-05,-0.012550017388583079,6.753328081210237e-07
2.95e-05,-0.0067527662870559,3.913736668372046e-07
2.9999999999999997e-05,-0.00031906523593905334,6.279051952931557e-08
3.05e-05,0.004828027983593497,-2.7295193551732325e-07
3.1e-05,0.010624619462999307,-5.77572703422269e-07
3.15e-05,0.014844951911268112,-8.16339250717183e-07
3.2e-05,0.01839584806865968,-9.620276715860854e-07
3.25e-05,0.020370406546091457,-9.980267284282717e-07
3.2999999999999996e-05,0.016130310223005484,-9.202318473658721e-07
3.35e-05,0.012883383604449739,-7.375131173581744e-07
3.4e-05,0.008678315424665017,-4.707039321653331e-07
3.45e-05,0.0019162554827762968,-1.5022558912075744e-07
3.5e-05,-0.0022186292840005173,1.8738131458572093e-07
3.5499999999999996e-05,-0.01062965600083321,5.036232016357578e-07
3.6e-05,-0.013546438691676377,7.62442511011448e-07
3.65e-05,-0.016464557960172765,9.343289424566121e-07
3.7e-05,-0.020370406546092124,9.996841892833e-07
3.75e-05,-0.017438309004186303,9.510565162951544e-07
3.7999999999999995e-05,-0.01422145775776884,7.939903986478369e-07
3.85e-05,-0.010640538087237639,5.463943467342681e-07
3.9e-05,-0.004175381648982457,2.3649899702372676e-07
3.95e-05,0.0009626124419384041,-1.0036171485121293e-07
3.9999999999999996e-05,0.007393721536204101,-4.2577929156507105e-07
4.0499999999999995e-05,0.012562367114229644,-7.026499697988455e-07
4.1e-05,0.01645020562549826,-8.994052515663704e-07
4.15e-05,0.020032496938706457,-9.936113105200082e-07
4.2e-05,0.01839584806865968,-9.745268727865773e-07
4.2499999999999996e-05,0.01613112801614247,-8.443279255020174e-07
4.2999999999999995e-05,0.010945226630170835,-6.178596130903375e-07
4.35e-05,0.005772187505379112,-3.2094360980720983e-07
4.4e-05,-0.00032816967106397144,1.2566039883352439e-08
4.45e-05,-0.006105547442680326,3.4464292317451373e-07
4.4999999999999996e-05,-0.01158304504344021,6.374239897486871e-07
4.5499999999999995e-05,-0.01645020562549826,8.575266561936507e-07
4.6e-05,-0.018736939221152715,9.79855052384247e-07
4.65e-05,-0.020032496938706457,9.904614256966516e-07
4.7e-05,-0.01645020562549826,8.881364488135457e-07
4.7499999999999996e-05,-0.012235586975904988,6.845471059286904e-07
4.8e-05,-0.0070721159178941395,4.029064357136646e-07
4.85e-05,-0.0003180467953487476,7.532680552793464e-08
4.9e-05,0.004822811588531817,-2.608415062898953e-07
4.95e-05,0.010624619462999307,-5.672689491267553e-07
4.9999999999999996e-05,0.01453965289316006,-8.090169943749467e-07
5.05e-05,0.018080226310185576,-9.585217890173756e-07
5.1e-05,0.020370406546091457,-9.987369566060174e-07
5.15e-05,0.016130310223005484,-9.250772068344583e-07
5.2e-05,0.013543049940836882,-7.459411454241824e-07
5.2499999999999995e-05,0.009005850399787407,-4.817536741017217e-07
5.3e-05,0.0015939907385811303,-1.6263716519488372e-07
5.35e-05,-0.0022273306859250663,1.750230589752761e-07
5.4e-05,-0.00997029885975298,4.927273415482918e-07
5.4499999999999997e-05,-0.013857764316871135,7.542513807360994e-07
5.4999999999999995e-05,-0.016130310223005484,9.29776485888249e-07
5.55e-05,-0.020370406546092124,9.992894726405892e-07
5.6e-05,-0.018080226310185576,9.548645447466425e-07
5.65e-05,-0.014539652893160282,8.015669848708801e-07
5.6999999999999996e-05,-0.010640538087237639,5.568756164881927e-07
5.7499999999999995e-05,-0.004485708335741467,2.4868988716486003e-07
5.8e-05,0.0009626124419384041,-8.785119655074504e-08
5.85e-05,0.007070127298965279,-4.1437558099327953e-07
5.9e-05,0.01223692309109592,-6.936533058128014e-07
5.9499999999999996e-05,0.01645020562549826,-8.938414241512616e-07
5.9999999999999995e-05,0.020032496938706457,-9.921147013144774e-07
6.05e-05,0.018718992719167105,-9.772681235681944e-07
6.1e-05,0.01645020562549826,-8.509944817946939e-07
6.149999999999999e-05,0.010622264935667092,-6.27691361290709e-07
6.2e-05,0.005772187505379112,-3.328195445229833e-07
6.25e-05,0.0,-3.429630018249177e-21
6.3e-05,-0.00577218750537889,3.3281954452298363e-07
6.35e-05,-0.010622264935667536,6.276913612906982e-07
6.4e-05,-0.01645020562549826,8.509944817946903e-07
6.45e-05,-0.018718992719167105,9.77268123568193e-07
6.5e-05,-0.020032496938706457,9.92114701314478e-07
6.549999999999999e-05,-0.01645020562549826,8.93841424151268e-07
6.599999999999999e-05,-0.012236923091095475,6.936533058128116e-07
6.65e-05,-0.0070701272989646125,4.143755809932858e-07
6.7e-05,-0.000962612441937738,8.78511965507448e-08
6.75e-05,0.004485708335741911,-2.486898871648534e-07
6.8e-05,0.010640538087237417,-5.568756164881869e-07
6.85e-05,0.01453965289316006,-8.015669848708759e-07
6.9e-05,0.018080226310185576,-9.548645447466427e-07
6.95e-05,0.020370406546091457,-9.992894726405895e-07
7e-05,0.016130310223005484,-9.29776485888254e-07
7.049999999999999e-05,0.013857764316870691,-7.542513807361086e-07
7.099999999999999e-05,0.00997029885975298,-4.927273415482978e-07
7.15e-05,0.0022273306859257325,-1.7502305897527587e-07
7.2e-05,-0.0015939907385804641,1.6263716519488396e-07
7.25e-05,-0.009005850399787407,4.817536741017157e-07
7.3e-05,-0.013543049940836882,7.459411454241827e-07
7.35e-05,-0.016130310223005484,9.250772068344556e-07
7.4e-05,-0.020370406546092124,9.987369566060172e-07
7.45e-05,-0.018080226310185576,9.585217890173775e-07
7.5e-05,-0.014539652893160282,8.090169943749506e-07
7.549999999999999e-05,-0.010624619462999751,5.672689491267608e-07
7.599999999999999e-05,-0.004822811588531373,2.6084150628990185e-07
7.65e-05,0.00031804679534919167,-7.532680552793489e-08
7.7e-05,0.007072115917895028,-4.029064357136648e-07
7.75e-05,0.012235586975905655,-6.845471059286854e-07
7.8e-05,0.01645020562549826,-8.881364488135424e-07
7.85e-05,0.020032496938706457,-9.904614256966505e-07
7.9e-05,0.01873693922115205,-9.798550523842475e-07
7.95e-05,0.01645020562549826,-8.575266561936541e-07
7.999999999999999e-05,0.011583045043439988,-6.374239897486923e-07
8.049999999999999e-05,0.00610554744268077,-3.4464292317452686e-07
8.099999999999999e-05,0.0003281696710644155,-1.2566039883362848e-08
8.15e-05,-0.00577218750537889,3.209436098072067e-07
8.2e-05,-0.010945226630171279,6.178596130903322e-07
8.25e-05,-0.01613112801614225,8.443279255020138e-07
8.3e-05,-0.01839584806865968,9.745268727865766e-07
8.35e-05,-0.020032496938706457,9.936113105200086e-07
8.4e-05,-0.01645020562549826,8.994052515663718e-07
8.45e-05,-0.012562367114228978,7.026499697988555e-07
8.499999999999999e-05,-0.007393721536203879,4.2577929156508047e-07
8.549999999999999e-05,-0.000962612441937738,1.0036171485122329e-07
8.599999999999999e-05,0.004175381648983123,-2.3649899702371668e-07
8.65e-05,0.010640538087237417,-5.463943467342683e-07
8.7e-05,0.014221457757768174,-7.939903986478348e-07
8.75e-05,0.01743830900418608,-9.510565162951534e-07
8.8e-05,0.020370406546091457,-9.996841892833e-07
8.85e-05,0.016464557960172765,-9.343289424566146e-07
8.9e-05,0.013546438691676377,-7.624425110114524e-07
8.95e-05,0.01062965600083321,-5.036232016357668e-07
8.999999999999999e-05,0.0022186292840009614,-1.8738131458573115e-07
9.049999999999999e-05,-0.0019162554827762968,1.5022558912075066e-07
9.099999999999999e-05,-0.008678315424665017,4.7070393216532704e-07
9.15e-05,-0.012883383604449294,7.375131173581745e-07
9.2e-05,-0.016130310223005484,9.202318473658708e-07
9.25e-05,-0.020370406546092124,9.980267284282713e-07
9.3e-05,-0.01839584806865968,9.620276715860873e-07
9.35e-05,-0.014844951911268112,8.163392507171869e-07
9.4e-05,-0.010624619462999751,5.775727034222717e-07
9.449999999999999e-05,-0.004828027983593275,2.7295193551732987e-07
9.499999999999999e-05,0.00031906523593971947,-6.279051952930873e-08
9.549999999999999e-05,0.006752766287056788,-3.913736668371983e-07
9.6e-05,0.012550017388583301,-6.753328081210212e-07
9.65e-05,0.01645020562549826,-8.822912264349514e-07
9.7e-05,0.01873693922115205,-9.886517447379133e-07
9.75e-05,0.01873693922115205,-9.822872507286893e-07
9.8e-05,0.01645020562549826,-8.63923417192837e-07
9.85e-05,0.011583045043439988,-6.470559615694467e-07
9.9e-05,0.00610554744268077,-3.564118787132535e-07
9.949999999999999e-05,0.0003281696710644155,-2.5130095443340325e-08
