time (s),power (mW),amplitude (m) = 1e-06,bundle radius = 0.0033,fiber radius = 0.0001875,# fibers = 220,beam waist = 0.0033040816326530614,cladding radius = 6.25e-05,total power (mW) = 90,sampling rate = 2000000.0,trace length = 0.0001,signal frequency = 108000.0
0.0,-0.04734887825592082,1e-06
5e-07,-0.04168282845512472,9.429905358928645e-07
1e-06,-0.03339144804204075,7.784623015670234e-07
1.5e-06,-0.025276719646413426,5.251746299612957e-07
2e-06,-0.01190577259543879,2.1200710992205473e-07
2.4999999999999998e-06,0.008469865629077589,-1.2533323356430415e-07
3e-06,0.02427248515660274,-4.483832160900321e-07
3.5e-06,0.03336797419952653,-7.203090248879069e-07
4e-06,0.041931234219061864,-9.101059706849956e-07
4.5e-06,0.047348878255924376,-9.961336091431724e-07
4.9999999999999996e-06,0.045065453468042804,-9.685831611286312e-07
5.5e-06,0.03595147746688454,-8.305958991958126e-07
6e-06,0.02606843730712427,-5.97904983057519e-07
6.5e-06,0.012706960150088875,-2.97041581577035e-07
7e-06,-0.003216344956943118,3.769018266993467e-08
7.499999999999999e-06,-0.017465881174686615,3.681245526846774e-07
8e-06,-0.03042469248566171,6.565857557529562e-07
8.5e-06,-0.037360215259033325,8.701837546695255e-07
9e-06,-0.04483500185845557,9.845643345292053e-07
9.499999999999999e-06,-0.04492628054198455,9.86685944207868e-07
9.999999999999999e-06,-0.03899762469796997,8.763066800438638e-07
1.05e-05,-0.02891463861285004,6.660118674342518e-07
1.1e-05,-0.019458374686138313,3.797790955218012e-07
1.15e-05,-0.003698741450822496,5.0244318179769394e-08
1.2e-05,0.010490585265756636,-2.850192624699756e-07
1.2499999999999999e-05,0.026764462931003763,-5.877852522924729e-07
1.3e-05,0.03546144592580802,-8.235325976284273e-07
1.35e-05,0.04469423053480703,-9.653816388332737e-07
1.4e-05,0.047348878255924376,-9.97158900260614e-07
1.45e-05,0.04164342328109427,-9.152411726209174e-07
1.4999999999999999e-05,0.032165495116730725,-7.289686274214123e-07
1.55e-05,0.025174472469586817,-4.595798606214871e-07
1.6e-05,0.008243370147249962,-1.3779029068463877e-07
1.6499999999999998e-05,-0.011152675475493368,1.9970998051440476e-07
1.7e-05,-0.024827030744685175,5.144395337815062e-07
1.75e-05,-0.03344024982767024,7.70513242775788e-07
1.8e-05,-0.04081366446544443,9.387338576538741e-07
1.85e-05,-0.04734887825592082,9.99921044203816e-07
1.8999999999999998e-05,-0.042617835411220995,9.470983049947447e-07
1.95e-05,-0.031610977895155656,7.862884321366196e-07
1.9999999999999998e-05,-0.02475029358098979,5.358267949789973e-07
2.05e-05,-0.012976029501093223,2.2427076094938186e-07
2.1e-05,0.005800997841854283,-1.128563848734812e-07
2.1499999999999997e-05,0.023344769593499848,-4.3711576665093104e-07
2.2e-05,0.03314035720242181,-7.115356772092852e-07
2.2499999999999998e-05,0.041375206713489376,-9.048270524660188e-07
2.3e-05,0.047421981591703855,-9.949510169813001e-07
2.35e-05,0.04545022369334184,-9.71631732914674e-07
2.4e-05,0.03586921993333547,-8.375280400421423e-07
2.45e-05,0.026200109282349615,-6.07930297694606e-07
2.4999999999999998e-05,0.01332644230579838,-3.09016994374948e-07
2.55e-05,-0.003882301863155746,2.5130095443337016e-08
2.6e-05,-0.015582637612263639,3.564118787132505e-07
2.65e-05,-0.030421436509309174,6.470559615694442e-07
2.7e-05,-0.03711528997515323,8.639234171928353e-07
2.7499999999999998e-05,-0.0444919478279342,9.82287250728688e-07
2.8e-05,-0.04531646028330805,9.88651744737914e-07
2.8499999999999998e-05,-0.038348452542020794,8.822912264349545e-07
2.9e-05,-0.031278966235625205,6.753328081210237e-07
2.95e-05,-0.019805662397095247,3.913736668372046e-07
2.9999999999999997e-05,-0.0031866653450123295,6.279051952931557e-08
3.05e-05,0.012349659257367307,-2.7295193551732325e-07
3.1e-05,0.026314283320065357,-5.77572703422269e-07
3.15e-05,0.03569641047213068,-8.16339250717183e-07
3.2e-05,0.04487011036277622,-9.620276715860854e-07
3.25e-05,0.047348878255924376,-9.980267284282717e-07
3.2999999999999996e-05,0.04054056768063674,-9.202318473658721e-07
3.35e-05,0.03279096540065396,-7.375131173581744e-07
3.4e-05,0.02497077959386651,-4.707039321653331e-07
3.45e-05,0.009338178088372118,-1.5022558912075744e-07
3.5e-05,-0.010620350805321976,1.8738131458572093e-07
3.5499999999999996e-05,-0.02507493113379411,5.036232016357578e-07
3.6e-05,-0.034464630086446846,7.62442511011448e-07
3.65e-05,-0.04093441297073319,9.343289424566121e-07
3.7e-05,-0.04734887825592082,9.996841892833e-07
3.75e-05,-0.04414736840298872,9.510565162951544e-07
3.7999999999999995e-05,-0.03286455620675888,7.939903986478369e-07
3.85e-05,-0.0252153260512884,5.463943467342681e-07
3.9e-05,-0.012568493145312942,2.3649899702372676e-07
3.95e-05,0.006124819221327016,-1.0036171485121293e-07
3.9999999999999996e-05,0.02219594465147523,-4.2577929156507105e-07
4.0499999999999995e-05,0.034326836309757525,-7.026499697988455e-07
4.1e-05,0.04142589096075966,-8.994052515663704e-07
4.15e-05,0.047421981591703855,-9.936113105200082e-07
4.2e-05,0.04424170288946705,-9.745268727865773e-07
4.2499999999999996e-05,0.035398179629979154,-8.443279255020174e-07
4.2999999999999995e-05,0.026232773475200588,-6.178596130903375e-07
4.35e-05,0.014086971312556429,-3.2094360980720983e-07
4.4e-05,-0.0013452805206579654,1.2566039883352439e-08
4.45e-05,-0.014878439981451663,3.4464292317451373e-07
4.4999999999999996e-05,-0.027931298698268492,6.374239897486871e-07
4.5499999999999995e-05,-0.0371565928596258,8.575266561936507e-07
4.6e-05,-0.0444919478279342,9.79855052384247e-07
4.65e-05,-0.04569262373951766,9.904614256966516e-07
4.7e-05,-0.038783913225879374,8.881364488135457e-07
4.7499999999999996e-05,-0.033035937672204696,6.845471059286904e-07
4.8e-05,-0.01961265258692535,4.029064357136646e-07
4.85e-05,-0.003948008167723671,7.532680552793464e-08
4.9e-05,0.011707144222945942,-2.608415062898953e-07
4.95e-05,0.025380667511067045,-5.672689491267553e-07
4.9999999999999996e-05,0.03446004266345959,-8.090169943749467e-07
5.05e-05,0.04532417776502662,-9.585217890173756e-07
5.1e-05,0.047348878255924376,-9.987369566060174e-07
5.15e-05,0.04061728475761406,-9.250772068344583e-07
5.2e-05,0.033397459401872,-7.459411454241824e-07
5.2499999999999995e-05,0.023889172560723537,-4.817536741017217e-07
5.3e-05,0.009424057150097198,-1.6263716519488372e-07
5.35e-05,-0.010339456133293012,1.750230589752761e-07
5.4e-05,-0.023932836868237217,4.927273415482918e-07
5.4499999999999997e-05,-0.03374469741339148,7.542513807360994e-07
5.4999999999999995e-05,-0.04061728475761406,9.29776485888249e-07
5.55e-05,-0.04734887825592082,9.992894726405892e-07
5.6e-05,-0.044252872306502766,9.548645447466425e-07
5.65e-05,-0.032287190008700506,8.015669848708801e-07
5.6999999999999996e-05,-0.024654490752686442,5.568756164881927e-07
5.7499999999999995e-05,-0.01153113608135925,2.4868988716486003e-07
5.8e-05,0.004318067256615876,-8.785119655074504e-08
5.85e-05,0.022539858247210276,-4.1437558099327953e-07
5.9e-05,0.03315719643318715,-6.936533058128014e-07
5.9499999999999996e-05,0.039579526135606,-8.938414241512616e-07
5.9999999999999995e-05,0.04650757660850502,-9.921147013144774e-07
6.05e-05,0.04463246130482723,-9.772681235681944e-07
6.1e-05,0.03636148840536535,-8.509944817946939e-07
6.149999999999999e-05,0.025438791558261897,-6.27691361290709e-07
6.2e-05,0.014830941968421385,-3.328195445229833e-07
6.25e-05,5.329070518200751e-15,-3.429630018249177e-21
6.3e-05,-0.014830941968421385,3.3281954452298363e-07
6.35e-05,-0.025438791558258345,6.276913612906982e-07
6.4e-05,-0.0363614884053618,8.509944817946903e-07
6.45e-05,-0.04463246130482723,9.77268123568193e-07
6.5e-05,-0.04650757660850502,9.92114701314478e-07
6.549999999999999e-05,-0.03957952613560245,8.93841424151268e-07
6.599999999999999e-05,-0.03315719643318715,6.936533058128116e-07
6.65e-05,-0.022539858247210276,4.143755809932858e-07
6.7e-05,-0.004318067256615876,8.78511965507448e-08
6.75e-05,0.011531136081357474,-2.486898871648534e-07
6.8e-05,0.024654490752686442,-5.568756164881869e-07
6.85e-05,0.03228719000869873,-8.015669848708759e-07
6.9e-05,0.044252872306502766,-9.548645447466427e-07
6.95e-05,0.047348878255924376,-9.992894726405895e-07
7e-05,0.04061728475761406,-9.29776485888254e-07
7.049999999999999e-05,0.033744697413387925,-7.542513807361086e-07
7.099999999999999e-05,0.023932836868237217,-4.927273415482978e-07
7.15e-05,0.01033945613328946,-1.7502305897527587e-07
7.2e-05,-0.00942405715010075,1.6263716519488396e-07
7.25e-05,-0.02388917256072176,4.817536741017157e-07
7.3e-05,-0.033397459401879104,7.459411454241827e-07
7.35e-05,-0.04061728475761406,9.250772068344556e-07
7.4e-05,-0.04734887825592082,9.987369566060172e-07
7.45e-05,-0.04532417776502662,9.585217890173775e-07
7.5e-05,-0.034460042663456036,8.090169943749506e-07
7.549999999999999e-05,-0.025380667511070598,5.672689491267608e-07
7.599999999999999e-05,-0.011707144222949495,2.6084150628990185e-07
7.65e-05,0.003948008167721895,-7.532680552793489e-08
7.7e-05,0.01961265258692535,-4.029064357136648e-07
7.75e-05,0.03303593767220647,-6.845471059286854e-07
7.8e-05,0.03878391322588293,-8.881364488135424e-07
7.85e-05,0.04569262373951766,-9.904614256966505e-07
7.9e-05,0.0444919478279342,-9.798550523842475e-07
7.95e-05,0.037156592859629356,-8.575266561936541e-07
7.999999999999999e-05,0.027931298698272045,-6.374239897486923e-07
8.049999999999999e-05,0.014878439981451663,-3.4464292317452686e-07
8.099999999999999e-05,0.0013452805206668472,-1.2566039883362848e-08
8.15e-05,-0.014086971312554653,3.209436098072067e-07
8.2e-05,-0.026232773475198812,6.178596130903322e-07
8.25e-05,-0.0353981796299756,8.443279255020138e-07
8.3e-05,-0.04424170288946705,9.745268727865766e-07
8.35e-05,-0.047421981591703855,9.936113105200086e-07
8.4e-05,-0.04142589096075788,8.994052515663718e-07
8.45e-05,-0.034326836309757525,7.026499697988555e-07
8.499999999999999e-05,-0.02219594465147523,4.2577929156508047e-07
8.549999999999999e-05,-0.0061248192213252395,1.0036171485122329e-07
8.599999999999999e-05,0.012568493145311166,-2.3649899702371668e-07
8.65e-05,0.02521532605128307,-5.463943467342683e-07
8.7e-05,0.03286455620676065,-7.939903986478348e-07
8.75e-05,0.04414736840298694,-9.510565162951534e-07
8.8e-05,0.047348878255924376,-9.996841892833e-07
8.85e-05,0.04093441297073497,-9.343289424566146e-07
8.9e-05,0.03446463008643974,-7.624425110114524e-07
8.95e-05,0.02507493113379411,-5.036232016357668e-07
8.999999999999999e-05,0.010620350805321976,-1.8738131458573115e-07
9.049999999999999e-05,-0.009338178088373894,1.5022558912075066e-07
9.099999999999999e-05,-0.02497077959386651,4.7070393216532704e-07
9.15e-05,-0.03279096540066284,7.375131173581745e-07
9.2e-05,-0.04054056768063852,9.202318473658708e-07
9.25e-05,-0.04734887825592082,9.980267284282713e-07
9.3e-05,-0.04487011036277799,9.620276715860873e-07
9.35e-05,-0.0356964104721289,8.163392507171869e-07
9.4e-05,-0.026314283320065357,5.775727034222717e-07
9.449999999999999e-05,-0.012349659257369083,2.7295193551732987e-07
9.499999999999999e-05,0.0031866653450123295,-6.279051952930873e-08
9.549999999999999e-05,0.01980566239709347,-3.913736668371983e-07
9.6e-05,0.03127896623562343,-6.753328081210212e-07
9.65e-05,0.038348452542020794,-8.822912264349514e-07
9.7e-05,0.04531646028330805,-9.886517447379133e-07
9.75e-05,0.0444919478279342,-9.822872507286893e-07
9.8e-05,0.03711528997515856,-8.63923417192837e-07
9.85e-05,0.030421436509309174,-6.470559615694467e-07
9.9e-05,0.015582637612260086,-3.564118787132535e-07
9.949999999999999e-05,0.0038823018631646278,-2.5130095443340325e-08
