time (s),power (mW),amplitude (m) = 1e-06,bundle radius = 0.0033,fiber radius = 0.0001875,# fibers = 50,beam waist = 0.0063040816326530615,cladding radius = 6.25e-05,total power (mW) = 90,sampling rate = 2000000.0,trace length = 0.0001,signal frequency = 108000.0
0.0,-0.019487767883832108,1e-06
5e-07,-0.018521695939055505,9.429905358928645e-07
1e-06,-0.01623312315611214,7.784623015670234e-07
1.5e-06,-0.01041824193906482,5.251746299612957e-07
2e-06,-0.004859960102886696,2.1200710992205473e-07
2.4999999999999998e-06,0.0022879578647587717,-1.2533323356430415e-07
3e-06,0.010057008533329359,-4.483832160900321e-07
3.5e-06,0.01590297293896259,-7.203090248879069e-07
4e-06,0.017216621615529615,-9.101059706849956e-07
4.5e-06,0.019487767883831664,-9.961336091431724e-07
4.9999999999999996e-06,0.019160194151731647,-9.685831611286312e-07
5.5e-06,0.016558058068387727,-8.305958991958126e-07
6e-06,0.01365803666705312,-5.97904983057519e-07
6.5e-06,0.00680607947648082,-2.97041581577035e-07
7e-06,-0.0009855186119522852,3.769018266993467e-08
7.499999999999999e-06,-0.008759212152245732,3.681245526846774e-07
8e-06,-0.013964946262088329,6.565857557529562e-07
8.5e-06,-0.016547036333070198,8.701837546695255e-07
9e-06,-0.01980595838893895,9.845643345292053e-07
9.499999999999999e-06,-0.01980595838893895,9.86685944207868e-07
9.999999999999999e-06,-0.016547036333070198,8.763066800438638e-07
1.05e-05,-0.013964946262088329,6.660118674342518e-07
1.1e-05,-0.008768776551201896,3.797790955218012e-07
1.15e-05,-0.0009855186119522852,5.0244318179769394e-08
1.2e-05,0.0071366609896050814,-2.850192624699756e-07
1.2499999999999999e-05,0.013019839269299727,-5.877852522924729e-07
1.3e-05,0.016558058068387727,-8.235325976284273e-07
1.35e-05,0.019484339411492746,-9.653816388332737e-07
1.4e-05,0.019487767883831664,-9.97158900260614e-07
1.45e-05,0.017216621615529615,-9.152411726209174e-07
1.4999999999999999e-05,0.016222453764860534,-7.289686274214123e-07
1.55e-05,0.009742407947380016,-4.595798606214871e-07
1.6e-05,0.0022708956212411646,-1.3779029068463877e-07
1.6499999999999998e-05,-0.0042096092013284014,1.9970998051440476e-07
1.7e-05,-0.01041824193906482,5.144395337815062e-07
1.75e-05,-0.015584059757427493,7.70513242775788e-07
1.8e-05,-0.018198661820673312,9.387338576538741e-07
1.85e-05,-0.019487767883832108,9.99921044203816e-07
1.8999999999999998e-05,-0.018842869663180162,9.470983049947447e-07
1.95e-05,-0.01656070446277047,7.862884321366196e-07
1.9999999999999998e-05,-0.011076817207826162,5.358267949789973e-07
2.05e-05,-0.005517563718279606,2.2427076094938186e-07
2.1e-05,0.002288002357490493,-1.128563848734812e-07
2.1499999999999997e-05,0.010057008533329359,-4.3711576665093104e-07
2.2e-05,0.015571502460044906,-7.115356772092852e-07
2.2499999999999998e-05,0.016878364108019017,-9.048270524660188e-07
2.3e-05,0.019487767883831664,-9.949510169813001e-07
2.35e-05,0.01948158376998399,-9.71631732914674e-07
2.4e-05,0.016884836741535736,-8.375280400421423e-07
2.45e-05,0.013023611666941326,-6.07930297694606e-07
2.4999999999999998e-05,0.0074603519469318424,-3.09016994374948e-07
2.55e-05,-0.0006590821493959176,2.5130095443337016e-08
2.6e-05,-0.00908373019225861,3.564118787132505e-07
2.65e-05,-0.013325646997373486,6.470559615694442e-07
2.7e-05,-0.016547036333070198,8.639234171928353e-07
2.7499999999999998e-05,-0.01948158376998399,9.82287250728688e-07
2.8e-05,-0.02012960446135792,9.88651744737914e-07
2.8499999999999998e-05,-0.016547036333070198,8.822912264349545e-07
2.9e-05,-0.014294430663184032,6.753328081210237e-07
2.95e-05,-0.009098314432464116,3.913736668372046e-07
2.9999999999999997e-05,-0.0013086645196362934,6.279051952931557e-08
3.05e-05,0.0071366609896050814,-2.7295193551732325e-07
3.1e-05,0.012046919807034762,-5.77572703422269e-07
3.15e-05,0.01688915296441218,-8.16339250717183e-07
3.2e-05,0.019484339411492746,-9.620276715860854e-07
3.25e-05,0.019487767883831664,-9.980267284282717e-07
3.2999999999999996e-05,0.017541292109087614,-9.202318473658721e-07
3.35e-05,0.01590579598780173,-7.375131173581744e-07
3.4e-05,0.009742407947380016,-4.707039321653331e-07
3.45e-05,0.0022582260022587786,-1.5022558912075744e-07
3.5e-05,-0.0038762781734984486,1.8738131458572093e-07
3.5499999999999996e-05,-0.010091061308000526,5.036232016357578e-07
3.6e-05,-0.015584059757427493,7.62442511011448e-07
3.65e-05,-0.01786952742731618,9.343289424566121e-07
3.7e-05,-0.019487767883832108,9.996841892833e-07
3.75e-05,-0.018842869663180162,9.510565162951544e-07
3.7999999999999995e-05,-0.01656070446277047,7.939903986478369e-07
3.85e-05,-0.011394358358076895,5.463943467342681e-07
3.9e-05,-0.00584629081981114,2.3649899702372676e-07
3.95e-05,0.0016384893890282193,-1.0036171485121293e-07
3.9999999999999996e-05,0.009400684978262408,-4.2577929156507105e-07
4.0499999999999995e-05,0.015261088969470205,-7.026499697988455e-07
4.1e-05,0.01687712824595211,-8.994052515663704e-07
4.15e-05,0.019487767883831664,-9.936113105200082e-07
4.2e-05,0.01948158376998399,-9.745268727865773e-07
4.2499999999999996e-05,0.016884836741535736,-8.443279255020174e-07
4.2999999999999995e-05,0.012689701854788238,-6.178596130903375e-07
4.35e-05,0.0074603519469318424,-3.2094360980720983e-07
4.4e-05,-0.0006590821493959176,1.2566039883352439e-08
4.45e-05,-0.008430775560384296,3.4464292317451373e-07
4.4999999999999996e-05,-0.013325646997373486,6.374239897486871e-07
4.5499999999999995e-05,-0.01720849896026544,8.575266561936507e-07
4.6e-05,-0.01948158376998399,9.79855052384247e-07
4.65e-05,-0.019813572284803405,9.904614256966516e-07
4.7e-05,-0.016547036333070198,8.881364488135457e-07
4.7499999999999996e-05,-0.014294430663184032,6.845471059286904e-07
4.8e-05,-0.008748499149567879,4.029064357136646e-07
4.85e-05,-0.0013086645196362934,7.532680552793464e-08
4.9e-05,0.0068204300182947986,-2.608415062898953e-07
4.95e-05,0.01139435835807645,-5.672689491267553e-07
4.9999999999999996e-05,0.01656709103286569,-8.090169943749467e-07
5.05e-05,0.019164511315497235,-9.585217890173756e-07
5.1e-05,0.019487767883831664,-9.987369566060174e-07
5.15e-05,0.017541292109087614,-9.250772068344583e-07
5.2e-05,0.01590579598780173,-7.459411454241824e-07
5.2499999999999995e-05,0.009428716556521888,-4.817536741017217e-07
5.3e-05,0.0022582260022587786,-1.6263716519488372e-07
5.35e-05,-0.0038762781734984486,1.750230589752761e-07
5.4e-05,-0.009428716556522332,4.927273415482918e-07
5.4499999999999997e-05,-0.015584059757427493,7.542513807360994e-07
5.4999999999999995e-05,-0.017213509875950717,9.29776485888249e-07
5.55e-05,-0.019487767883832108,9.992894726405892e-07
5.6e-05,-0.018842869663180162,9.548645447466425e-07
5.65e-05,-0.016885221966662423,8.015669848708801e-07
5.6999999999999996e-05,-0.011394358358076895,5.568756164881927e-07
5.7499999999999995e-05,-0.006499220730410649,2.4868988716486003e-07
5.8e-05,0.0013086645196354052,-8.785119655074504e-08
5.85e-05,0.008748499149567213,-4.1437558099327953e-07
5.9e-05,0.014621263048467226,-6.936533058128014e-07
5.9499999999999996e-05,0.01687712824595211,-8.938414241512616e-07
5.9999999999999995e-05,0.019487767883831664,-9.921147013144774e-07
6.05e-05,0.01948158376998399,-9.772681235681944e-07
6.1e-05,0.016884836741535736,-8.509944817946939e-07
6.149999999999999e-05,0.013014390230702277,-6.27691361290709e-07
6.2e-05,0.007780020609064797,-3.328195445229833e-07
6.25e-05,-4.440892098500626e-16,-3.429630018249177e-21
6.3e-05,-0.007780020609065019,3.3281954452298363e-07
6.35e-05,-0.013014390230702721,6.276913612906982e-07
6.4e-05,-0.016884836741535514,8.509944817946903e-07
6.45e-05,-0.01948158376998399,9.77268123568193e-07
6.5e-05,-0.019487767883832108,9.92114701314478e-07
6.549999999999999e-05,-0.01687712824595189,8.93841424151268e-07
6.599999999999999e-05,-0.01462126304846767,6.936533058128116e-07
6.65e-05,-0.008748499149567879,4.143755809932858e-07
6.7e-05,-0.0013086645196362934,8.78511965507448e-08
6.75e-05,0.0064992207304102045,-2.486898871648534e-07
6.8e-05,0.01139435835807645,-5.568756164881869e-07
6.85e-05,0.016885221966662645,-8.015669848708759e-07
6.9e-05,0.018842869663180162,-9.548645447466427e-07
6.95e-05,0.019487767883831664,-9.992894726405895e-07
7e-05,0.01721350987595116,-9.29776485888254e-07
7.049999999999999e-05,0.015584059757427049,-7.542513807361086e-07
7.099999999999999e-05,0.009428716556521888,-4.927273415482978e-07
7.15e-05,0.0038762781734984486,-1.7502305897527587e-07
7.2e-05,-0.0022582260022587786,1.6263716519488396e-07
7.25e-05,-0.009428716556522332,4.817536741017157e-07
7.3e-05,-0.01590579598780195,7.459411454241827e-07
7.35e-05,-0.01754129210908717,9.250772068344556e-07
7.4e-05,-0.019487767883832108,9.987369566060172e-07
7.45e-05,-0.019164511315497235,9.585217890173775e-07
7.5e-05,-0.01656709103286569,8.090169943749506e-07
7.549999999999999e-05,-0.011394358358076895,5.672689491267608e-07
7.599999999999999e-05,-0.006820430018295465,2.6084150628990185e-07
7.65e-05,0.0013086645196354052,-7.532680552793489e-08
7.7e-05,0.008748499149567213,-4.029064357136648e-07
7.75e-05,0.014294430663183588,-6.845471059286854e-07
7.8e-05,0.01654703633307042,-8.881364488135424e-07
7.85e-05,0.01981357228480296,-9.904614256966505e-07
7.9e-05,0.01948158376998399,-9.798550523842475e-07
7.95e-05,0.01720849896026566,-8.575266561936541e-07
7.999999999999999e-05,0.013325646997373042,-6.374239897486923e-07
8.049999999999999e-05,0.008430775560384074,-3.4464292317452686e-07
8.099999999999999e-05,0.0006590821493952514,-1.2566039883362848e-08
8.15e-05,-0.00746035194693162,3.209436098072067e-07
8.2e-05,-0.012689701854788682,6.178596130903322e-07
8.25e-05,-0.016884836741535514,8.443279255020138e-07
8.3e-05,-0.01948158376998399,9.745268727865766e-07
8.35e-05,-0.019487767883832108,9.936113105200086e-07
8.4e-05,-0.01687712824595189,8.994052515663718e-07
8.45e-05,-0.015261088969470427,7.026499697988555e-07
8.499999999999999e-05,-0.009400684978263296,4.2577929156508047e-07
8.549999999999999e-05,-0.0016384893890288854,1.0036171485122329e-07
8.599999999999999e-05,0.0058462908198106955,-2.3649899702371668e-07
8.65e-05,0.01139435835807645,-5.463943467342683e-07
8.7e-05,0.01656070446277047,-7.939903986478348e-07
8.75e-05,0.018842869663180162,-9.510565162951534e-07
8.8e-05,0.019487767883831664,-9.996841892833e-07
8.85e-05,0.0178695274273164,-9.343289424566146e-07
8.9e-05,0.015584059757427049,-7.624425110114524e-07
8.95e-05,0.010091061308000082,-5.036232016357668e-07
8.999999999999999e-05,0.0038762781734984486,-1.8738131458573115e-07
9.049999999999999e-05,-0.0022582260022587786,1.5022558912075066e-07
9.099999999999999e-05,-0.00974240794738046,4.7070393216532704e-07
9.15e-05,-0.01590579598780195,7.375131173581745e-07
9.2e-05,-0.01754129210908717,9.202318473658708e-07
9.25e-05,-0.019487767883832108,9.980267284282713e-07
9.3e-05,-0.019484339411492968,9.620276715860873e-07
9.35e-05,-0.016889152964411958,8.163392507171869e-07
9.4e-05,-0.012046919807035428,5.775727034222717e-07
9.449999999999999e-05,-0.0071366609896055255,2.7295193551732987e-07
9.499999999999999e-05,0.0013086645196354052,-6.279051952930873e-08
9.549999999999999e-05,0.00909831443246345,-3.913736668371983e-07
9.6e-05,0.014294430663183588,-6.753328081210212e-07
9.65e-05,0.01654703633307042,-8.822912264349514e-07
9.7e-05,0.020129604461357475,-9.886517447379133e-07
9.75e-05,0.01948158376998399,-9.822872507286893e-07
9.8e-05,0.01654703633307042,-8.63923417192837e-07
9.85e-05,0.013325646997373042,-6.470559615694467e-07
9.9e-05,0.009083730192258166,-3.564118787132535e-07
9.949999999999999e-05,0.0006590821493952514,-2.5130095443340325e-08
